time,.header.seq,.header.stamp.secs,.header.stamp.nsecs,.header.frame_id,.ch0,.ch1,.ch2,.ch3,.ch4,.ch5,.ch6,.ch7
2017/07/11/15:20:19.438794,49256,1499757619,438604116,0,71,303,133,57,42,35,88,92
2017/07/11/15:20:19.461217,49257,1499757619,461091041,0,85,310,159,73,52,39,104,97
2017/07/11/15:20:19.483828,49258,1499757619,483697891,0,97,337,200,85,58,52,134,115
2017/07/11/15:20:19.499032,49259,1499757619,498761892,0,109,340,207,90,62,59,138,140
2017/07/11/15:20:19.521209,49260,1499757619,521076917,0,107,312,206,88,61,67,148,147
2017/07/11/15:20:19.544579,49261,1499757619,544302940,0,117,381,220,95,69,78,219,164
2017/07/11/15:20:19.559199,49262,1499757619,558924913,0,112,431,227,93,66,83,256,183
2017/07/11/15:20:19.581392,49263,1499757619,581197977,0,151,500,215,91,62,75,252,176
2017/07/11/15:20:19.612372,49264,1499757619,612068891,0,235,529,225,96,69,87,306,196
2017/07/11/15:20:19.627085,49265,1499757619,626442909,0,239,609,230,93,67,94,372,195
2017/07/11/15:20:19.641208,49266,1499757619,641098022,0,279,676,234,97,70,104,406,206
2017/07/11/15:20:19.665806,49267,1499757619,665458917,0,291,673,218,94,78,102,394,225
2017/07/11/15:20:19.686340,49268,1499757619,686122894,0,383,680,271,111,91,117,432,228
2017/07/11/15:20:19.701559,49269,1499757619,701356887,0,496,663,266,117,96,114,411,210
2017/07/11/15:20:19.724031,49270,1499757619,723766088,0,523,627,273,120,96,105,406,227
2017/07/11/15:20:19.746520,49271,1499757619,746193885,0,517,620,265,119,93,92,359,220
2017/07/11/15:20:19.761236,49272,1499757619,761090040,0,540,659,285,118,98,107,430,209
2017/07/11/15:20:19.783983,49273,1499757619,783647060,0,478,613,239,105,100,94,397,264
2017/07/11/15:20:19.806240,49274,1499757619,806092023,0,325,644,253,108,105,94,427,281
2017/07/11/15:20:19.829055,49275,1499757619,828789949,0,281,622,258,129,114,103,408,313
2017/07/11/15:20:19.843837,49276,1499757619,843657970,0,265,628,311,134,114,102,415,358
2017/07/11/15:20:19.866506,49277,1499757619,866313934,0,239,582,307,132,108,94,380,354
2017/07/11/15:20:19.881485,49278,1499757619,881215095,0,223,627,299,132,101,106,385,322
2017/07/11/15:20:19.904044,49279,1499757619,903847932,0,207,610,290,120,97,109,371,320
2017/07/11/15:20:19.926436,49280,1499757619,926224946,0,199,621,280,98,88,110,472,355
2017/07/11/15:20:19.941293,49281,1499757619,941118955,0,212,664,252,88,93,124,463,367
2017/07/11/15:20:19.965373,49282,1499757619,965178966,0,174,640,234,100,104,130,506,363
2017/07/11/15:20:19.997449,49283,1499757619,996947050,0,269,598,223,95,97,134,553,377
2017/07/11/15:20:20.016916,49284,1499757620,16763925,0,274,605,222,98,90,140,605,437
2017/07/11/15:20:20.024534,49285,1499757620,24101972,0,275,596,228,99,98,159,610,472
2017/07/11/15:20:20.054601,49286,1499757620,54451942,0,283,400,172,99,102,155,636,452
2017/07/11/15:20:20.069110,49287,1499757620,68816900,0,286,445,193,94,88,160,643,493
2017/07/11/15:20:20.083871,49288,1499757620,83662986,0,205,429,194,95,91,152,621,500
2017/07/11/15:20:20.106813,49289,1499757620,106662988,0,192,434,208,96,92,152,611,450
2017/07/11/15:20:20.122876,49290,1499757620,122584104,0,192,431,180,89,83,126,526,360
2017/07/11/15:20:20.145744,49291,1499757620,145600080,0,151,488,189,92,75,135,561,372
2017/07/11/15:20:20.166403,49292,1499757620,166229009,0,131,494,164,95,87,135,553,396
2017/07/11/15:20:20.181495,49293,1499757620,181171894,0,129,497,168,96,87,143,599,452
2017/07/11/15:20:20.203805,49294,1499757620,203634023,0,151,482,146,90,85,131,559,439
2017/07/11/15:20:20.228225,49295,1499757620,226219892,0,163,457,172,105,92,128,577,459
2017/07/11/15:20:20.241496,49296,1499757620,241290092,0,157,447,174,101,93,110,502,460
2017/07/11/15:20:20.272047,49297,1499757620,271855115,0,170,395,177,94,93,113,469,433
2017/07/11/15:20:20.286716,49298,1499757620,286381959,0,207,397,182,89,91,97,390,354
2017/07/11/15:20:20.311609,49299,1499757620,308753967,0,201,409,176,89,94,104,406,429
2017/07/11/15:20:20.326168,49300,1499757620,325925111,0,199,431,157,76,91,105,371,430
2017/07/11/15:20:20.346753,49301,1499757620,346358060,0,208,504,165,77,114,120,386,439
2017/07/11/15:20:20.361812,49302,1499757620,361500978,0,203,520,156,75,108,102,338,404
2017/07/11/15:20:20.384060,49303,1499757620,383881092,0,186,533,152,97,117,126,413,446
2017/07/11/15:20:20.406384,49304,1499757620,406218051,0,191,509,146,104,124,127,403,392
2017/07/11/15:20:20.421966,49305,1499757620,421442031,0,190,539,148,102,131,142,437,402
2017/07/11/15:20:20.443809,49306,1499757620,443634986,0,212,492,175,105,111,133,471,373
2017/07/11/15:20:20.466840,49307,1499757620,466531038,0,212,471,176,105,111,136,500,375
2017/07/11/15:20:20.481633,49308,1499757620,481261968,0,191,442,187,88,109,119,436,364
2017/07/11/15:20:20.512883,49309,1499757620,511955022,0,218,459,213,87,100,123,474,393
2017/07/11/15:20:20.526331,49310,1499757620,526113033,0,216,380,211,88,92,113,452,379
2017/07/11/15:20:20.541303,49311,1499757620,541136980,0,228,303,179,86,101,131,438,414
2017/07/11/15:20:20.563790,49312,1499757620,563618898,0,229,347,187,90,99,132,406,433
2017/07/11/15:20:20.586885,49313,1499757620,586599111,0,248,374,172,89,96,127,390,406
2017/07/11/15:20:20.610276,49314,1499757620,610173940,0,217,351,142,83,89,131,320,392
2017/07/11/15:20:20.625165,49315,1499757620,625029087,0,213,343,133,78,85,150,383,392
2017/07/11/15:20:20.655351,49316,1499757620,655076026,0,202,465,239,90,82,140,447,368
2017/07/11/15:20:20.668767,49317,1499757620,668596982,0,212,454,246,90,78,134,452,347
2017/07/11/15:20:20.683734,49318,1499757620,683578968,0,200,452,256,93,74,132,458,361
2017/07/11/15:20:20.706920,49319,1499757620,706464052,0,204,447,259,90,78,131,488,340
2017/07/11/15:20:20.728691,49320,1499757620,728580951,0,207,496,268,94,78,111,425,322
2017/07/11/15:20:20.744220,49321,1499757620,743877887,0,181,423,188,79,62,98,321,317
2017/07/11/15:20:20.767909,49322,1499757620,767784118,0,169,416,167,74,67,98,297,322
2017/07/11/15:20:20.788743,49323,1499757620,788645982,0,155,386,147,74,69,103,321,331
2017/07/11/15:20:20.804148,49324,1499757620,803864955,0,179,389,138,79,100,111,333,410
2017/07/11/15:20:20.826582,49325,1499757620,826472043,0,223,381,176,79,101,110,358,426
2017/07/11/15:20:20.848890,49326,1499757620,848696947,0,242,317,182,87,107,120,376,424
2017/07/11/15:20:20.864236,49327,1499757620,863975048,0,257,307,188,89,117,158,472,460
2017/07/11/15:20:20.886534,49328,1499757620,886339902,0,256,312,189,97,120,175,570,491
2017/07/11/15:20:20.925226,49329,1499757620,925004959,0,268,353,196,95,97,162,561,467
2017/07/11/15:20:20.926501,49330,1499757620,926429986,0,234,312,172,101,100,161,550,462
2017/07/11/15:20:20.946295,49331,1499757620,946099042,0,217,309,147,93,102,176,608,498
2017/07/11/15:20:20.969426,49332,1499757620,969065904,0,226,333,156,96,99,144,535,494
2017/07/11/15:20:20.984164,49333,1499757620,983936071,0,227,402,169,92,96,129,422,515
2017/07/11/15:20:21.006282,49334,1499757621,6115913,0,272,421,184,98,95,128,394,502
2017/07/11/15:20:21.028888,49335,1499757621,28661012,0,316,505,196,98,99,125,418,525
2017/07/11/15:20:21.043747,49336,1499757621,43590068,0,332,522,205,98,100,104,307,491
2017/07/11/15:20:21.066538,49337,1499757621,66361904,0,316,538,201,93,100,128,351,480
2017/07/11/15:20:21.089946,49338,1499757621,88762044,0,334,528,236,97,99,122,361,434
2017/07/11/15:20:21.104012,49339,1499757621,103758096,0,299,503,220,89,100,122,356,419
2017/07/11/15:20:21.126405,49340,1499757621,126246929,0,251,416,195,85,91,135,358,414
2017/07/11/15:20:21.148928,49341,1499757621,148771047,0,236,393,188,86,88,158,397,471
2017/07/11/15:20:21.165078,49342,1499757621,164027929,0,249,358,189,88,79,146,407,444
2017/07/11/15:20:21.186636,49343,1499757621,186316967,0,232,304,142,84,86,148,380,456
2017/07/11/15:20:21.209693,49344,1499757621,208842992,0,213,263,139,95,110,158,376,474
2017/07/11/15:20:21.224198,49345,1499757621,223913908,0,236,328,177,91,110,148,357,486
2017/07/11/15:20:21.246269,49346,1499757621,246081113,0,233,318,172,86,107,118,337,439
2017/07/11/15:20:21.269043,49347,1499757621,268682003,0,247,308,163,84,106,112,279,451
2017/07/11/15:20:21.284309,49348,1499757621,283736944,0,240,290,153,81,105,118,280,407
2017/07/11/15:20:21.306394,49349,1499757621,306215047,0,263,364,179,75,88,128,286,420
2017/07/11/15:20:21.330625,49350,1499757621,330300092,0,258,305,151,78,87,135,247,387
2017/07/11/15:20:21.347134,49351,1499757621,346846103,0,276,309,151,83,88,143,289,379
2017/07/11/15:20:21.366315,49352,1499757621,366195917,0,306,328,154,102,106,149,297,398
2017/07/11/15:20:21.398297,49353,1499757621,397023916,0,308,322,154,107,115,202,300,438
2017/07/11/15:20:21.403922,49354,1499757621,403713941,0,275,256,126,101,107,191,289,395
2017/07/11/15:20:21.426278,49355,1499757621,426095008,0,273,252,119,102,112,194,308,368
2017/07/11/15:20:21.449101,49356,1499757621,448690891,0,299,359,141,118,123,189,238,394
2017/07/11/15:20:21.465167,49357,1499757621,464822053,0,256,360,144,117,119,191,229,363
2017/07/11/15:20:21.486345,49358,1499757621,486159086,0,282,371,140,111,106,145,246,339
2017/07/11/15:20:21.509002,49359,1499757621,508774995,0,280,354,136,111,107,153,265,394
2017/07/11/15:20:21.531456,49360,1499757621,531311035,0,287,387,161,112,102,142,241,400
2017/07/11/15:20:21.546280,49361,1499757621,546081066,0,256,337,163,92,87,154,232,378
2017/07/11/15:20:21.568916,49362,1499757621,568749904,0,249,304,153,70,68,143,231,424
2017/07/11/15:20:21.591214,49363,1499757621,591061115,0,223,312,155,66,70,139,233,418
2017/07/11/15:20:21.607859,49364,1499757621,607697963,0,231,350,157,68,76,133,198,356
2017/07/11/15:20:21.629998,49365,1499757621,629599094,0,257,326,124,75,89,133,214,355
2017/07/11/15:20:21.659458,49366,1499757621,659302949,0,236,267,98,90,96,125,240,333
2017/07/11/15:20:21.666249,49367,1499757621,666095018,0,226,271,103,90,99,137,253,287
2017/07/11/15:20:21.689040,49368,1499757621,688851118,0,218,286,109,95,98,121,228,287
2017/07/11/15:20:21.711233,49369,1499757621,711106061,0,245,275,135,100,99,117,245,338
2017/07/11/15:20:21.726229,49370,1499757621,726061105,0,255,251,136,109,101,135,258,376
2017/07/11/15:20:21.752070,49371,1499757621,751821994,0,257,263,128,104,105,186,246,385
2017/07/11/15:20:21.775207,49372,1499757621,775007963,0,281,299,128,114,112,182,229,402
2017/07/11/15:20:21.786291,49373,1499757621,786127090,0,323,295,125,125,132,192,235,422
2017/07/11/15:20:21.809323,49374,1499757621,809068918,0,302,289,97,121,131,189,231,388
2017/07/11/15:20:21.831256,49375,1499757621,831116914,0,262,300,98,112,128,182,226,426
2017/07/11/15:20:21.846664,49376,1499757621,846395969,0,252,302,101,105,118,121,224,430
2017/07/11/15:20:21.869473,49377,1499757621,869009017,0,236,273,117,101,118,122,247,407
2017/07/11/15:20:21.891521,49378,1499757621,891320943,0,185,245,113,87,98,125,249,402
2017/07/11/15:20:21.906434,49379,1499757621,906208992,0,198,221,112,96,112,141,282,400
2017/07/11/15:20:21.937861,49380,1499757621,936965942,0,195,198,104,95,115,143,289,358
2017/07/11/15:20:21.951219,49381,1499757621,951105117,0,205,250,111,101,121,140,271,338
2017/07/11/15:20:21.966196,49382,1499757621,966094970,0,197,273,119,98,113,130,249,347
2017/07/11/15:20:21.989015,49383,1499757621,988775968,0,207,280,121,99,110,108,253,319
2017/07/11/15:20:22.011642,49384,1499757622,11297941,0,183,278,119,93,96,114,213,350
2017/07/11/15:20:22.026253,49385,1499757622,26098012,0,194,315,130,89,82,108,186,329
2017/07/11/15:20:22.048831,49386,1499757622,48638105,0,210,293,138,84,72,118,197,328
2017/07/11/15:20:22.071305,49387,1499757622,71130037,0,201,260,118,79,69,124,239,320
2017/07/11/15:20:22.086863,49388,1499757622,86399078,0,185,254,110,71,61,140,260,317
2017/07/11/15:20:22.109076,49389,1499757622,108824014,0,186,256,110,65,59,117,248,287
2017/07/11/15:20:22.134205,49390,1499757622,131347894,0,171,267,107,57,54,108,263,267
2017/07/11/15:20:22.146837,49391,1499757622,146595954,0,147,251,87,52,49,95,264,269
2017/07/11/15:20:22.177362,49392,1499757622,177175998,0,162,247,78,54,54,108,240,284
2017/07/11/15:20:22.191347,49393,1499757622,191163063,0,150,239,76,59,69,158,217,268
2017/07/11/15:20:22.206655,49394,1499757622,206444025,0,150,233,75,60,68,170,267,276
2017/07/11/15:20:22.229267,49395,1499757622,229078054,0,150,168,73,57,67,175,245,267
2017/07/11/15:20:22.251150,49396,1499757622,251034021,0,146,160,73,59,72,180,242,255
2017/07/11/15:20:22.267007,49397,1499757622,266611099,0,150,172,80,57,69,171,235,241
2017/07/11/15:20:22.288956,49398,1499757622,288664102,0,156,198,87,54,56,113,220,291
2017/07/11/15:20:22.311308,49399,1499757622,311120033,0,152,230,93,56,59,105,177,274
2017/07/11/15:20:22.328357,49400,1499757622,328227996,0,146,222,92,67,67,108,188,312
2017/07/11/15:20:22.350651,49401,1499757622,350415945,0,148,209,92,69,64,117,213,331
2017/07/11/15:20:22.371678,49402,1499757622,371439933,0,135,277,99,73,66,114,218,319
2017/07/11/15:20:22.386885,49403,1499757622,386399030,0,129,335,113,73,68,111,227,280
2017/07/11/15:20:22.409418,49404,1499757622,408950090,0,134,310,114,67,60,100,223,296
2017/07/11/15:20:22.431278,49405,1499757622,431112051,0,123,309,105,60,60,98,230,248
2017/07/11/15:20:22.453953,49406,1499757622,453799962,0,120,310,105,60,60,85,239,247
2017/07/11/15:20:22.469614,49407,1499757622,469363927,0,118,295,102,56,62,84,236,258
2017/07/11/15:20:22.491307,49408,1499757622,491180896,0,117,233,99,56,61,83,239,270
2017/07/11/15:20:22.514009,49409,1499757622,513783931,0,110,294,105,57,62,81,227,242
2017/07/11/15:20:22.528772,49410,1499757622,528650999,0,115,301,108,58,60,84,218,250
2017/07/11/15:20:22.551255,49411,1499757622,551140069,0,113,299,105,54,58,79,190,243
2017/07/11/15:20:22.574226,49412,1499757622,573987007,0,113,259,101,52,54,84,181,249
2017/07/11/15:20:22.588777,49413,1499757622,588620901,0,118,246,99,51,50,83,184,236
2017/07/11/15:20:22.612130,49414,1499757622,611540079,0,110,168,83,51,48,92,198,250
2017/07/11/15:20:22.633769,49415,1499757622,633641004,0,112,154,78,47,41,78,195,250
2017/07/11/15:20:22.648692,49416,1499757622,648551940,0,119,212,89,46,37,79,185,241
2017/07/11/15:20:22.671423,49417,1499757622,671215057,0,124,244,101,43,34,76,193,250
2017/07/11/15:20:22.694060,49418,1499757622,693857908,0,140,244,92,55,44,81,211,313
2017/07/11/15:20:22.710186,49419,1499757622,710047006,0,167,247,94,62,64,86,236,316
2017/07/11/15:20:22.731473,49420,1499757622,731276988,0,168,262,101,63,67,91,240,321
2017/07/11/15:20:22.753798,49421,1499757622,753633975,0,158,264,108,69,69,86,244,311
2017/07/11/15:20:22.768628,49422,1499757622,768516063,0,147,257,103,73,72,84,248,290
2017/07/11/15:20:22.791262,49423,1499757622,791135072,0,127,245,98,63,67,84,243,216
2017/07/11/15:20:22.813822,49424,1499757622,813700914,0,85,248,97,55,49,73,224,203
2017/07/11/15:20:22.828784,49425,1499757622,828603029,0,88,252,98,57,45,67,218,176
2017/07/11/15:20:22.851887,49426,1499757622,851478099,0,89,221,90,50,46,69,210,189
2017/07/11/15:20:22.873906,49427,1499757622,873610019,0,93,185,77,47,46,88,202,193
2017/07/11/15:20:22.888774,49428,1499757622,888648033,0,104,189,74,56,50,83,192,192
2017/07/11/15:20:22.911606,49429,1499757622,911346912,0,114,249,105,57,50,79,187,194
2017/07/11/15:20:22.933972,49430,1499757622,933811902,0,113,237,103,55,52,93,184,205
2017/07/11/15:20:22.948808,49431,1499757622,948640108,0,110,219,95,56,52,97,197,193
2017/07/11/15:20:22.971774,49432,1499757622,971379041,0,117,214,96,56,51,87,207,193
2017/07/11/15:20:22.993779,49433,1499757622,993623018,0,113,227,97,47,44,86,194,193
2017/07/11/15:20:23.008891,49434,1499757623,8749008,0,108,158,71,45,46,87,220,193
2017/07/11/15:20:23.031559,49435,1499757623,31301975,0,98,166,61,43,45,85,229,189
2017/07/11/15:20:23.054186,49436,1499757623,53878068,0,136,190,73,46,45,80,222,239
