time,.header.seq,.header.stamp.secs,.header.stamp.nsecs,.header.frame_id,.quat0,.quat1,.quat2,.quat3,.acc0,.acc1,.acc2
2017/07/11/15:32:35.452705,84674,1499758355,452527046,0,7550,6991,7445,10349,232,1936,431
2017/07/11/15:32:35.482880,84675,1499758355,482681035,0,7542,6992,7423,10369,225,1856,436
2017/07/11/15:32:35.497834,84676,1499758355,497561931,0,7540,6984,7401,10392,254,1829,473
2017/07/11/15:32:35.512797,84677,1499758355,512617111,0,7538,6970,7388,10412,238,1868,444
2017/07/11/15:32:35.544516,84678,1499758355,544284105,0,7535,6958,7377,10430,232,1945,487
2017/07/11/15:32:35.559077,84679,1499758355,558760881,0,7530,6957,7362,10446,242,1923,461
2017/07/11/15:32:35.582215,84680,1499758355,582046985,0,7526,6960,7344,10459,241,1886,452
2017/07/11/15:32:35.596573,84681,1499758355,596406936,0,7521,6963,7331,10470,262,1875,448
2017/07/11/15:32:35.617991,84682,1499758355,617714881,0,7510,6973,7320,10478,259,1936,467
2017/07/11/15:32:35.640647,84683,1499758355,640450954,0,7494,6980,7305,10496,234,2066,418
2017/07/11/15:32:35.655055,84684,1499758355,654938936,0,7491,6982,7271,10521,282,1956,473
2017/07/11/15:32:35.678105,84685,1499758355,677836894,0,7492,6977,7224,10555,270,1856,474
2017/07/11/15:32:35.700307,84686,1499758355,700141906,0,7495,6970,7185,10584,223,2009,488
2017/07/11/15:32:35.715529,84687,1499758355,715313911,0,7499,6967,7135,10617,267,2043,451
2017/07/11/15:32:35.737869,84688,1499758355,737709045,0,7529,6943,7053,10667,275,1921,569
2017/07/11/15:32:35.761467,84689,1499758355,761231899,0,7575,6908,6958,10718,313,1679,687
2017/07/11/15:32:35.775306,84690,1499758355,775044918,0,7591,6911,6899,10744,387,1655,596
2017/07/11/15:32:35.797621,84691,1499758355,797471046,0,7576,6929,6876,10757,370,1892,547
2017/07/11/15:32:35.820273,84692,1499758355,820046901,0,7587,6936,6861,10755,387,1966,566
2017/07/11/15:32:35.835751,84693,1499758355,835453033,0,7606,6935,6817,10770,423,1748,585
2017/07/11/15:32:35.858322,84694,1499758355,857692003,0,7607,6942,6802,10774,351,1671,557
2017/07/11/15:32:35.888967,84695,1499758355,888634920,0,7605,6959,6811,10758,396,1873,557
2017/07/11/15:32:35.895151,84696,1499758355,894978046,0,7619,6959,6819,10744,459,1850,608
2017/07/11/15:32:35.918169,84697,1499758355,917778015,0,7656,6941,6830,10722,443,1818,623
2017/07/11/15:32:35.940649,84698,1499758355,940231084,0,7690,6908,6876,10689,393,2007,623
2017/07/11/15:32:35.955087,84699,1499758355,954948902,0,7724,6857,6911,10675,275,1996,621
2017/07/11/15:32:35.978351,84700,1499758355,977977037,0,7761,6795,6945,10666,328,1939,633
2017/07/11/15:32:36.000397,84701,1499758356,134944,0,7796,6729,6998,10647,270,1997,620
2017/07/11/15:32:36.015424,84702,1499758356,15204906,0,7832,6630,7061,10642,209,2228,712
2017/07/11/15:32:36.046663,84703,1499758356,45994043,0,7862,6524,7119,10647,123,2031,646
2017/07/11/15:32:36.060613,84704,1499758356,60410976,0,7898,6431,7209,10616,30,1979,559
2017/07/11/15:32:36.075818,84705,1499758356,75473070,0,7940,6328,7306,10580,4,2035,706
2017/07/11/15:32:36.097543,84706,1499758356,97448110,0,7985,6228,7426,10522,-83,2096,621
2017/07/11/15:32:36.120669,84707,1499758356,120323896,0,8025,6120,7539,10475,-53,2094,681
2017/07/11/15:32:36.135298,84708,1499758356,135116100,0,8070,5997,7647,10433,-168,2049,603
2017/07/11/15:32:36.158306,84709,1499758356,158041954,0,8126,5867,7755,10382,-212,1939,598
2017/07/11/15:32:36.180225,84710,1499758356,180046081,0,8187,5743,7867,10320,-226,1914,593
2017/07/11/15:32:36.195670,84711,1499758356,195353031,0,8245,5623,7984,10250,-192,1925,599
2017/07/11/15:32:36.218287,84712,1499758356,217958927,0,8308,5493,8093,10184,-229,1930,599
2017/07/11/15:32:36.240231,84713,1499758356,240056991,0,8375,5356,8194,10121,-305,1912,583
2017/07/11/15:32:36.257622,84714,1499758356,257457971,0,8440,5224,8294,10055,-317,1826,590
2017/07/11/15:32:36.277696,84715,1499758356,277578115,0,8499,5102,8399,9980,-337,1872,559
2017/07/11/15:32:36.300199,84716,1499758356,300067901,0,8557,4978,8497,9910,-411,1898,566
2017/07/11/15:32:36.322905,84717,1499758356,322675943,0,8618,4852,8589,9840,-452,1868,557
2017/07/11/15:32:36.337989,84718,1499758356,337750911,0,8681,4727,8667,9777,-448,1746,589
2017/07/11/15:32:36.369051,84719,1499758356,368736982,0,8739,4616,8751,9704,-473,1790,565
2017/07/11/15:32:36.382678,84720,1499758356,382513999,0,8793,4512,8838,9624,-528,1876,560
2017/07/11/15:32:36.405457,84721,1499758356,405095100,0,8853,4397,8900,9565,-514,1876,567
2017/07/11/15:32:36.420475,84722,1499758356,420311927,0,8919,4269,8952,9513,-597,1762,540
2017/07/11/15:32:36.443144,84723,1499758356,442949056,0,8991,4147,9002,9451,-668,1733,558
2017/07/11/15:32:36.458130,84724,1499758356,457899093,0,9064,4036,9050,9384,-634,1814,542
2017/07/11/15:32:36.480691,84725,1499758356,480242967,0,9136,3912,9077,9341,-630,1781,579
2017/07/11/15:32:36.503518,84726,1499758356,503174066,0,9197,3788,9098,9311,-678,1701,607
2017/07/11/15:32:36.518025,84727,1499758356,517723083,0,9264,3671,9126,9264,-766,1723,549
2017/07/11/15:32:36.556697,84728,1499758356,556438922,0,9334,3562,9147,9216,-828,1742,552
2017/07/11/15:32:36.564276,84729,1499758356,564052104,0,9401,3461,9154,9178,-763,1709,570
2017/07/11/15:32:36.578433,84730,1499758356,578087091,0,9465,3354,9147,9159,-748,1702,594
2017/07/11/15:32:36.602688,84731,1499758356,602520942,0,9533,3246,9135,9140,-829,1633,606
2017/07/11/15:32:36.623272,84732,1499758356,622929096,0,9604,3145,9133,9103,-913,1652,577
2017/07/11/15:32:36.637947,84733,1499758356,637623071,0,9674,3054,9122,9071,-887,1683,614
2017/07/11/15:32:36.661810,84734,1499758356,661668062,0,9737,2962,9101,9055,-815,1645,594
2017/07/11/15:32:36.683050,84735,1499758356,682632923,0,9804,2863,9075,9040,-906,1624,626
2017/07/11/15:32:36.698446,84736,1499758356,697808027,0,9874,2768,9043,9026,-937,1616,662
2017/07/11/15:32:36.720586,84737,1499758356,720238924,0,9937,2680,9013,9013,-995,1542,643
2017/07/11/15:32:36.744229,84738,1499758356,744018077,0,9997,2610,8983,8998,-983,1555,648
2017/07/11/15:32:36.757814,84739,1499758356,757616043,0,10052,2546,8953,8984,-953,1619,672
2017/07/11/15:32:36.780985,84740,1499758356,780467033,0,10106,2473,8907,8991,-932,1606,674
2017/07/11/15:32:36.802756,84741,1499758356,802577972,0,10168,2393,8855,8994,-1013,1479,663
2017/07/11/15:32:36.817752,84742,1499758356,817580938,0,10242,2317,8793,8990,-994,1388,728
2017/07/11/15:32:36.840508,84743,1499758356,840189933,0,10304,2261,8738,8987,-919,1449,721
2017/07/11/15:32:36.863673,84744,1499758356,863049983,0,10359,2203,8684,8991,-969,1527,753
2017/07/11/15:32:36.878114,84745,1499758356,877901077,0,10415,2141,8621,9001,-1031,1474,770
2017/07/11/15:32:36.900279,84746,1499758356,900060892,0,10476,2086,8553,9009,-1029,1389,747
2017/07/11/15:32:36.922893,84747,1499758356,922652006,0,10528,2042,8483,9024,-975,1340,826
2017/07/11/15:32:36.938426,84748,1499758356,938018083,0,10579,2003,8416,9036,-988,1354,860
2017/07/11/15:32:36.960645,84749,1499758356,960335969,0,10638,1951,8334,9054,-983,1376,874
2017/07/11/15:32:36.982995,84750,1499758356,982759952,0,10706,1886,8236,9077,-1034,1325,894
2017/07/11/15:32:36.997913,84751,1499758356,997728109,0,10774,1838,8145,9089,-1070,1313,878
2017/07/11/15:32:37.020190,84752,1499758357,20056962,0,10832,1806,8063,9099,-1001,1382,918
2017/07/11/15:32:37.042778,84753,1499758357,42567014,0,10888,1765,7970,9122,-1001,1394,942
2017/07/11/15:32:37.058627,84754,1499758357,58082103,0,10958,1699,7857,9150,-1054,1291,987
2017/07/11/15:32:37.080377,84755,1499758357,80192089,0,11038,1640,7742,9162,-1057,1255,1046
2017/07/11/15:32:37.103121,84756,1499758357,102919101,0,11113,1606,7638,9164,-969,1297,1117
2017/07/11/15:32:37.117682,84757,1499758357,117592096,0,11173,1568,7545,9176,-1041,1440,1068
2017/07/11/15:32:37.140424,84758,1499758357,140149116,0,11237,1505,7425,9205,-984,1294,1102
2017/07/11/15:32:37.162685,84759,1499758357,162503957,0,11316,1430,7292,9227,-980,1071,1190
2017/07/11/15:32:37.179307,84760,1499758357,179018974,0,11384,1395,7192,9227,-1033,1084,1215
2017/07/11/15:32:37.200710,84761,1499758357,200455904,0,11433,1384,7122,9222,-1003,1359,1219
2017/07/11/15:32:37.222863,84762,1499758357,222671985,0,11479,1341,7032,9240,-930,1293,1197
2017/07/11/15:32:37.245364,84763,1499758357,245142936,0,11533,1279,6918,9268,-970,1065,1261
2017/07/11/15:32:37.263495,84764,1499758357,262252092,0,11586,1236,6825,9278,-972,1016,1286
2017/07/11/15:32:37.283127,84765,1499758357,282778024,0,11629,1219,6755,9276,-960,1122,1228
2017/07/11/15:32:37.313257,84766,1499758357,313147068,0,11670,1205,6683,9279,-922,1190,1297
2017/07/11/15:32:37.326228,84767,1499758357,320061922,0,11707,1179,6620,9281,-1099,1155,1292
2017/07/11/15:32:37.343000,84768,1499758357,342777013,0,11745,1153,6544,9290,-1008,1152,1328
2017/07/11/15:32:37.365850,84769,1499758357,365502119,0,11794,1109,6456,9295,-992,989,1326
2017/07/11/15:32:37.380468,84770,1499758357,380306005,0,11847,1077,6368,9292,-977,1003,1382
2017/07/11/15:32:37.402852,84771,1499758357,402662038,0,11897,1055,6291,9284,-988,1056,1336
2017/07/11/15:32:37.425361,84772,1499758357,425137996,0,11952,1024,6199,9278,-840,1081,1360
2017/07/11/15:32:37.440314,84773,1499758357,440089941,0,12004,977,6098,9283,-826,965,1417
2017/07/11/15:32:37.463141,84774,1499758357,462765932,0,12046,933,6022,9283,-1049,920,1485
2017/07/11/15:32:37.485969,84775,1499758357,485649108,0,12081,927,5976,9268,-1087,939,1462
2017/07/11/15:32:37.500314,84776,1499758357,500129938,0,12115,934,5918,9259,-871,1066,1502
2017/07/11/15:32:37.523552,84777,1499758357,522950887,0,12153,915,5843,9259,-934,907,1582
2017/07/11/15:32:37.553380,84778,1499758357,553205013,0,12192,917,5786,9243,-1002,841,1572
2017/07/11/15:32:37.560963,84779,1499758357,560571908,0,12221,946,5742,9229,-791,1004,1538
2017/07/11/15:32:37.591714,84780,1499758357,591054916,0,12245,940,5690,9231,-817,964,1487
2017/07/11/15:32:37.605378,84781,1499758357,605137109,0,12273,913,5639,9228,-990,755,1532
2017/07/11/15:32:37.620277,84782,1499758357,620071887,0,12302,920,5595,9215,-910,840,1580
2017/07/11/15:32:37.653732,84783,1499758357,652657985,0,12322,923,5559,9210,-825,944,1524
2017/07/11/15:32:37.665826,84784,1499758357,665329933,0,12340,892,5511,9218,-801,840,1545
2017/07/11/15:32:37.681331,84785,1499758357,681226015,0,12357,867,5475,9218,-934,757,1515
2017/07/11/15:32:37.703469,84786,1499758357,703138113,0,12368,865,5450,9219,-881,822,1523
2017/07/11/15:32:37.725490,84787,1499758357,725284099,0,12378,852,5418,9226,-749,871,1511
2017/07/11/15:32:37.740263,84788,1499758357,740073919,0,12388,810,5377,9239,-858,727,1599
2017/07/11/15:32:37.762959,84789,1499758357,762721061,0,12393,800,5356,9246,-926,779,1608
2017/07/11/15:32:37.785536,84790,1499758357,785285949,0,12388,808,5356,9253,-835,997,1516
2017/07/11/15:32:37.800221,84791,1499758357,800048112,0,12386,778,5325,9276,-761,888,1519
2017/07/11/15:32:37.830887,84792,1499758357,830773115,0,12389,735,5293,9294,-888,608,1613
2017/07/11/15:32:37.845471,84793,1499758357,845259904,0,12384,750,5309,9290,-988,753,1611
2017/07/11/15:32:37.860898,84794,1499758357,860637903,0,12371,782,5328,9293,-833,1074,1536
2017/07/11/15:32:37.884070,84795,1499758357,883857965,0,12367,755,5310,9311,-891,874,1551
2017/07/11/15:32:37.905660,84796,1499758357,905337095,0,12368,732,5295,9320,-929,732,1585
2017/07/11/15:32:37.920109,84797,1499758357,919945001,0,12364,743,5297,9323,-837,895,1575
2017/07/11/15:32:37.942875,84798,1499758357,942703962,0,12356,747,5297,9334,-846,884,1541
2017/07/11/15:32:37.965345,84799,1499758357,965157032,0,12348,743,5303,9341,-926,863,1639
2017/07/11/15:32:37.980930,84800,1499758357,980724096,0,12344,740,5298,9350,-703,653,1616
2017/07/11/15:32:38.002908,84801,1499758358,2698898,0,12335,756,5292,9363,-1048,933,1376
2017/07/11/15:32:38.025649,84802,1499758358,25429010,0,12343,752,5259,9372,-724,679,1468
2017/07/11/15:32:38.040398,84803,1499758358,40272951,0,12334,774,5273,9375,-807,911,1660
2017/07/11/15:32:38.062642,84804,1499758358,62520027,0,12319,779,5290,9384,-923,933,1613
2017/07/11/15:32:38.085684,84805,1499758358,85431098,0,12308,770,5296,9397,-918,981,1635
2017/07/11/15:32:38.100761,84806,1499758358,100450992,0,12304,747,5289,9406,-930,847,1663
2017/07/11/15:32:38.123437,84807,1499758358,122926950,0,12304,742,5293,9405,-988,803,1564
2017/07/11/15:32:38.145154,84808,1499758358,144999980,0,12301,774,5304,9401,-835,955,1538
2017/07/11/15:32:38.160575,84809,1499758358,160342931,0,12294,785,5309,9406,-826,957,1564
2017/07/11/15:32:38.183581,84810,1499758358,183198928,0,12292,771,5299,9415,-877,752,1576
2017/07/11/15:32:38.205258,84811,1499758358,205097913,0,12290,782,5306,9413,-919,790,1608
2017/07/11/15:32:38.220366,84812,1499758358,220172882,0,12282,805,5329,9409,-901,958,1546
2017/07/11/15:32:38.242937,84813,1499758358,242701053,0,12278,808,5333,9412,-881,929,1514
2017/07/11/15:32:38.265526,84814,1499758358,265233993,0,12280,805,5323,9414,-835,820,1567
2017/07/11/15:32:38.280240,84815,1499758358,280038118,0,12277,815,5333,9412,-886,876,1584
2017/07/11/15:32:38.310615,84816,1499758358,310074090,0,12271,826,5344,9412,-846,950,1518
2017/07/11/15:32:38.325401,84817,1499758358,325098991,0,12269,819,5338,9419,-852,866,1542
2017/07/11/15:32:38.340203,84818,1499758358,340045928,0,12270,821,5338,9418,-876,854,1585
2017/07/11/15:32:38.362995,84819,1499758358,362826108,0,12269,832,5346,9413,-822,923,1511
2017/07/11/15:32:38.385390,84820,1499758358,385122060,0,12269,833,5346,9413,-814,892,1502
2017/07/11/15:32:38.400575,84821,1499758358,400317907,0,12272,836,5342,9411,-887,848,1582
2017/07/11/15:32:38.422687,84822,1499758358,422522068,0,12272,852,5349,9406,-896,942,1598
2017/07/11/15:32:38.445719,84823,1499758358,445507049,0,12272,852,5349,9406,-855,941,1559
2017/07/11/15:32:38.468001,84824,1499758358,467679023,0,12278,842,5334,9408,-849,833,1553
2017/07/11/15:32:38.482722,84825,1499758358,482549905,0,12284,847,5331,9401,-876,829,1591
2017/07/11/15:32:38.505682,84826,1499758358,505323886,0,12286,865,5335,9394,-863,894,1606
2017/07/11/15:32:38.536568,84827,1499758358,536356925,0,12285,878,5335,9394,-782,938,1546
2017/07/11/15:32:38.543803,84828,1499758358,543025016,0,12283,873,5336,9396,-843,879,1500
2017/07/11/15:32:38.565186,84829,1499758358,565033912,0,12287,865,5335,9393,-909,867,1553
2017/07/11/15:32:38.587901,84830,1499758358,587769985,0,12291,875,5337,9386,-848,907,1575
2017/07/11/15:32:38.602933,84831,1499758358,602689027,0,12289,888,5349,9380,-838,961,1560
2017/07/11/15:32:38.625467,84832,1499758358,625211954,0,12286,892,5356,9380,-831,916,1506
2017/07/11/15:32:38.647685,84833,1499758358,647516965,0,12286,889,5359,9378,-892,848,1535
2017/07/11/15:32:38.663105,84834,1499758358,662847042,0,12290,893,5358,9373,-876,835,1578
2017/07/11/15:32:38.686218,84835,1499758358,685781002,0,12292,901,5367,9365,-867,921,1519
2017/07/11/15:32:38.707635,84836,1499758358,707468986,0,12291,897,5365,9368,-782,920,1492
2017/07/11/15:32:38.722862,84837,1499758358,722584009,0,12291,890,5363,9370,-901,833,1533
2017/07/11/15:32:38.745584,84838,1499758358,745373964,0,12293,901,5365,9365,-850,840,1530
2017/07/11/15:32:38.768114,84839,1499758358,767587900,0,12289,924,5373,9363,-807,989,1511
2017/07/11/15:32:38.783066,84840,1499758358,782742977,0,12287,918,5367,9370,-806,925,1547
2017/07/11/15:32:38.805607,84841,1499758358,805310010,0,12289,901,5360,9372,-958,800,1572
2017/07/11/15:32:38.829819,84842,1499758358,829559087,0,12293,921,5367,9362,-878,882,1539
2017/07/11/15:32:38.842710,84843,1499758358,842539072,0,12290,948,5376,9357,-768,1075,1494
2017/07/11/15:32:38.865158,84844,1499758358,865010976,0,12287,929,5365,9370,-802,898,1564
2017/07/11/15:32:38.888141,84845,1499758358,887936115,0,12288,901,5353,9377,-899,708,1587
2017/07/11/15:32:38.903194,84846,1499758358,902951002,0,12290,914,5365,9367,-917,863,1549
2017/07/11/15:32:38.925462,84847,1499758358,925277948,0,12285,940,5378,9364,-842,1047,1537
