time,.header.seq,.header.stamp.secs,.header.stamp.nsecs,.header.frame_id,.quat0,.quat1,.quat2,.quat3,.acc0,.acc1,.acc2
2017/07/11/15:23:00.300700,55971,1499757780,300510883,0,5557,6084,8312,11464,406,1829,453
2017/07/11/15:23:00.317010,55972,1499757780,316819906,0,5550,6105,8266,11489,397,1733,383
2017/07/11/15:23:00.337200,55973,1499757780,336945056,0,5555,6127,8251,11486,414,1817,463
2017/07/11/15:23:00.361191,55974,1499757780,361042022,0,5573,6140,8242,11477,362,1942,496
2017/07/11/15:23:00.374298,55975,1499757780,374092102,0,5601,6123,8209,11496,283,1887,536
2017/07/11/15:23:00.397269,55976,1499757780,397079944,0,5613,6112,8162,11529,395,1724,547
2017/07/11/15:23:00.419170,55977,1499757780,418960094,0,5618,6123,8150,11529,479,1819,507
2017/07/11/15:23:00.434835,55978,1499757780,434515953,0,5619,6143,8172,11503,429,2016,380
2017/07/11/15:23:00.456989,55979,1499757780,456696987,0,5626,6143,8178,11495,334,2042,433
2017/07/11/15:23:00.479186,55980,1499757780,479013919,0,5629,6137,8163,11507,369,1873,494
2017/07/11/15:23:00.502002,55981,1499757780,501589059,0,5626,6134,8168,11507,462,1854,507
2017/07/11/15:23:00.524856,55982,1499757780,524732112,0,5616,6113,8192,11506,514,1959,556
2017/07/11/15:23:00.539156,55983,1499757780,538975000,0,5627,6051,8231,11506,335,2076,531
2017/07/11/15:23:00.554254,55984,1499757780,554037094,0,5665,5973,8304,11475,115,2122,469
2017/07/11/15:23:00.576734,55985,1499757780,576574087,0,5673,5912,8362,11461,296,2186,522
2017/07/11/15:23:00.599295,55986,1499757780,599128007,0,5700,5825,8448,11429,237,2166,461
2017/07/11/15:23:00.630668,55987,1499757780,629964113,0,5747,5706,8528,11406,157,2159,487
2017/07/11/15:23:00.636721,55988,1499757780,636567115,0,5806,5564,8615,11381,68,2066,495
2017/07/11/15:23:00.667421,55989,1499757780,667218923,0,5865,5420,8709,11348,-3,2036,451
2017/07/11/15:23:00.682080,55990,1499757780,681844949,0,5931,5275,8827,11291,-45,2049,448
2017/07/11/15:23:00.716658,55991,1499757780,716095924,0,6011,5124,8947,11224,-69,2091,481
2017/07/11/15:23:00.719163,55992,1499757780,718981027,0,6088,4971,9063,11158,-80,2098,469
2017/07/11/15:23:00.741918,55993,1499757780,741645097,0,6163,4803,9167,11105,-164,2100,448
2017/07/11/15:23:00.764509,55994,1499757780,764312028,0,6238,4636,9271,11047,-256,1946,386
2017/07/11/15:23:00.779174,55995,1499757780,778991937,0,6316,4480,9377,10977,-249,1927,436
2017/07/11/15:23:00.801866,55996,1499757780,801706075,0,6388,4331,9498,10892,-267,1917,474
2017/07/11/15:23:00.817086,55997,1499757780,816870927,0,6453,4184,9601,10821,-250,1997,471
2017/07/11/15:23:00.839696,55998,1499757780,839473962,0,6516,4033,9687,10763,-336,1971,383
2017/07/11/15:23:00.861608,55999,1499757780,861465930,0,6586,3883,9766,10704,-383,1858,367
2017/07/11/15:23:00.877159,56000,1499757780,876949071,0,6657,3746,9848,10634,-367,1763,374
2017/07/11/15:23:00.899512,56001,1499757780,899288892,0,6724,3619,9928,10561,-391,1819,356
2017/07/11/15:23:00.921870,56002,1499757780,921542882,0,6788,3498,10008,10486,-418,1924,396
2017/07/11/15:23:00.936866,56003,1499757780,936686992,0,6845,3373,10075,10424,-480,1981,347
2017/07/11/15:23:00.960279,56004,1499757780,959511041,0,6907,3250,10119,10380,-564,1903,322
2017/07/11/15:23:00.981584,56005,1499757780,981447935,0,6974,3141,10157,10331,-542,1758,289
2017/07/11/15:23:00.996866,56006,1499757780,996546030,0,7037,3047,10208,10266,-543,1762,320
2017/07/11/15:23:01.019389,56007,1499757781,19198894,0,7094,2962,10257,10203,-533,1896,346
2017/07/11/15:23:01.041936,56008,1499757781,41718959,0,7148,2870,10302,10146,-594,1951,363
2017/07/11/15:23:01.056955,56009,1499757781,56744098,0,7197,2771,10329,10111,-657,1926,351
2017/07/11/15:23:01.079765,56010,1499757781,79478025,0,7256,2663,10351,10076,-750,1850,330
2017/07/11/15:23:01.101787,56011,1499757781,101598978,0,7320,2565,10374,10032,-800,1752,293
2017/07/11/15:23:01.116870,56012,1499757781,116686105,0,7377,2490,10409,9972,-749,1794,341
2017/07/11/15:23:01.139337,56013,1499757781,139102935,0,7429,2418,10438,9920,-789,1899,331
2017/07/11/15:23:01.162476,56014,1499757781,162302970,0,7477,2335,10443,9899,-815,1885,347
2017/07/11/15:23:01.176711,56015,1499757781,176539897,0,7538,2239,10432,9887,-839,1776,350
2017/07/11/15:23:01.200081,56016,1499757781,199500083,0,7606,2150,10434,9852,-936,1719,257
2017/07/11/15:23:01.222059,56017,1499757781,221848964,0,7672,2073,10432,9820,-894,1750,309
2017/07/11/15:23:01.236761,56018,1499757781,236546039,0,7736,1999,10420,9797,-853,1745,330
2017/07/11/15:23:01.259349,56019,1499757781,259171009,0,7802,1925,10409,9772,-883,1719,386
2017/07/11/15:23:01.281674,56020,1499757781,281546115,0,7876,1852,10403,9733,-1023,1779,336
2017/07/11/15:23:01.298037,56021,1499757781,297849893,0,7944,1792,10391,9701,-956,1809,366
2017/07/11/15:23:01.319323,56022,1499757781,319108009,0,7999,1723,10355,9707,-907,1742,366
2017/07/11/15:23:01.350064,56023,1499757781,349910020,0,8059,1651,10315,9712,-992,1586,367
2017/07/11/15:23:01.356642,56024,1499757781,356482982,0,8133,1584,10295,9683,-1108,1622,371
2017/07/11/15:23:01.379375,56025,1499757781,379036903,0,8211,1536,10258,9664,-1064,1753,454
2017/07/11/15:23:01.401576,56026,1499757781,401449918,0,8280,1476,10191,9686,-932,1697,506
2017/07/11/15:23:01.417107,56027,1499757781,416794061,0,8351,1395,10124,9707,-1086,1610,449
2017/07/11/15:23:01.439449,56028,1499757781,439110994,0,8442,1315,10057,9708,-1154,1529,404
2017/07/11/15:23:01.461754,56029,1499757781,461532115,0,8540,1258,9994,9695,-1127,1418,429
2017/07/11/15:23:01.477776,56030,1499757781,477504968,0,8608,1232,9927,9708,-911,1564,577
2017/07/11/15:23:01.499905,56031,1499757781,499435901,0,8672,1177,9849,9737,-961,1632,560
2017/07/11/15:23:01.521665,56032,1499757781,521461963,0,8758,1091,9746,9775,-1146,1512,487
2017/07/11/15:23:01.544452,56033,1499757781,544262886,0,8869,1032,9636,9790,-1231,1360,545
2017/07/11/15:23:01.559468,56034,1499757781,559217929,0,8953,1035,9566,9781,-1042,1418,623
2017/07/11/15:23:01.585849,56035,1499757781,585364103,0,8997,1045,9506,9798,-882,1704,569
2017/07/11/15:23:01.607742,56036,1499757781,607362985,0,9047,1002,9415,9844,-1039,1637,576
2017/07/11/15:23:01.627182,56037,1499757781,626980066,0,9121,941,9305,9886,-1178,1336,688
2017/07/11/15:23:01.641854,56038,1499757781,641619920,0,9194,919,9217,9903,-1142,1325,802
2017/07/11/15:23:01.664684,56039,1499757781,664403915,0,9248,921,9150,9915,-1047,1507,715
2017/07/11/15:23:01.679647,56040,1499757781,679295063,0,9302,901,9056,9953,-1053,1535,761
2017/07/11/15:23:01.701772,56041,1499757781,701553106,0,9373,867,8949,9987,-1199,1271,773
2017/07/11/15:23:01.724653,56042,1499757781,724332094,0,9449,858,8850,10003,-1031,1351,829
2017/07/11/15:23:01.739301,56043,1499757781,739150047,0,9504,838,8775,10018,-921,1564,763
2017/07/11/15:23:01.763110,56044,1499757781,762967109,0,9550,783,8672,10069,-1057,1563,826
2017/07/11/15:23:01.784454,56045,1499757781,784291982,0,9611,711,8551,10119,-1147,1211,840
2017/07/11/15:23:01.814835,56046,1499757781,814649105,0,9676,688,8462,10134,-1072,1177,952
2017/07/11/15:23:01.821579,56047,1499757781,821439981,0,9723,687,8410,10132,-1061,1416,904
2017/07/11/15:23:01.844628,56048,1499757781,844330072,0,9759,668,8328,10167,-940,1510,964
2017/07/11/15:23:01.859382,56049,1499757781,859087944,0,9805,613,8226,10210,-1095,1263,967
2017/07/11/15:23:01.881783,56050,1499757781,881513118,0,9863,581,8144,10221,-1252,1146,1016
2017/07/11/15:23:01.904480,56051,1499757781,904225111,0,9914,569,8065,10235,-915,1290,1077
2017/07/11/15:23:01.919396,56052,1499757781,919234991,0,9952,530,7990,10259,-1006,1320,1040
2017/07/11/15:23:01.943017,56053,1499757781,942881107,0,9991,460,7897,10296,-1154,1298,1061
2017/07/11/15:23:01.964721,56054,1499757781,964332103,0,10039,402,7796,10330,-1090,1078,1086
2017/07/11/15:23:01.979573,56055,1499757781,979283094,0,10082,363,7713,10351,-1038,1127,1122
2017/07/11/15:23:02.001657,56056,1499757782,1524925,0,10109,326,7651,10371,-1101,1170,1137
2017/07/11/15:23:02.024426,56057,1499757782,24194955,0,10132,276,7570,10410,-1002,1219,1166
2017/07/11/15:23:02.039638,56058,1499757782,39376974,0,10165,196,7477,10447,-1130,1068,1163
2017/07/11/15:23:02.061685,56059,1499757782,61507940,0,10199,142,7405,10466,-1211,1097,1185
2017/07/11/15:23:02.084562,56060,1499757782,84300994,0,10220,107,7342,10491,-1051,1219,1222
2017/07/11/15:23:02.106790,56061,1499757782,106630086,0,10247,52,7264,10519,-1043,985,1215
2017/07/11/15:23:02.121847,56062,1499757782,121711015,0,10272,15,7198,10539,-1090,1050,1224
2017/07/11/15:23:02.144661,56063,1499757782,144460916,0,10287,-19,7148,10559,-1078,1193,1263
2017/07/11/15:23:02.159524,56064,1499757782,159274101,0,10300,-88,7080,10592,-1051,1113,1229
2017/07/11/15:23:02.183014,56065,1499757782,182893037,0,10320,-169,6987,10633,-972,902,1281
2017/07/11/15:23:02.204569,56066,1499757782,204160928,0,10336,-227,6914,10664,-1083,980,1286
2017/07/11/15:23:02.219241,56067,1499757782,219046115,0,10352,-281,6854,10686,-1101,1004,1332
2017/07/11/15:23:02.241807,56068,1499757782,241616964,0,10363,-330,6796,10711,-1073,1020,1356
2017/07/11/15:23:02.264281,56069,1499757782,264087915,0,10372,-384,6744,10733,-1083,1033,1341
2017/07/11/15:23:02.279994,56070,1499757782,279396057,0,10380,-444,6685,10760,-1049,973,1350
2017/07/11/15:23:02.301619,56071,1499757782,301434040,0,10389,-498,6629,10784,-988,912,1352
2017/07/11/15:23:02.324093,56072,1499757782,323920965,0,10390,-552,6592,10802,-1071,948,1422
2017/07/11/15:23:02.340251,56073,1499757782,339159965,0,10383,-610,6569,10820,-1142,910,1520
2017/07/11/15:23:02.362020,56074,1499757782,361782073,0,10381,-657,6556,10828,-1205,882,1393
2017/07/11/15:23:02.384151,56075,1499757782,384000062,0,10387,-695,6527,10837,-1087,995,1390
2017/07/11/15:23:02.399790,56076,1499757782,399517059,0,10385,-726,6521,10840,-1276,854,1421
2017/07/11/15:23:02.421688,56077,1499757782,421525955,0,10373,-716,6543,10839,-1133,892,1475
2017/07/11/15:23:02.444686,56078,1499757782,444376945,0,10365,-711,6572,10830,-1145,1050,1358
2017/07/11/15:23:02.461227,56079,1499757782,461072921,0,10365,-724,6573,10828,-1084,930,1357
2017/07/11/15:23:02.482281,56080,1499757782,481798887,0,10367,-724,6585,10818,-1196,906,1391
2017/07/11/15:23:02.504442,56081,1499757782,504224061,0,10368,-699,6603,10808,-1109,867,1396
2017/07/11/15:23:02.519496,56082,1499757782,519268989,0,10362,-673,6633,10797,-1000,955,1266
2017/07/11/15:23:02.541678,56083,1499757782,541503906,0,10361,-687,6631,10799,-1053,972,1274
2017/07/11/15:23:02.564875,56084,1499757782,564418077,0,10368,-714,6621,10797,-1221,751,1380
2017/07/11/15:23:02.579683,56085,1499757782,579356908,0,10370,-694,6645,10781,-1236,852,1317
2017/07/11/15:23:02.602735,56086,1499757782,602479934,0,10365,-667,6664,10776,-1023,1051,1226
2017/07/11/15:23:02.625533,56087,1499757782,624437093,0,10366,-689,6650,10783,-1091,844,1351
2017/07/11/15:23:02.639408,56088,1499757782,639206886,0,10372,-694,6644,10780,-1246,755,1391
2017/07/11/15:23:02.661805,56089,1499757782,661614894,0,10370,-646,6683,10761,-1222,980,1277
2017/07/11/15:23:02.684436,56090,1499757782,684187889,0,10367,-641,6686,10762,-971,1195,1202
2017/07/11/15:23:02.706853,56091,1499757782,706582069,0,10362,-688,6647,10788,-1156,866,1370
2017/07/11/15:23:02.721686,56092,1499757782,721506118,0,10367,-717,6636,10788,-1262,714,1467
2017/07/11/15:23:02.744251,56093,1499757782,744076013,0,10367,-694,6669,10769,-1160,1013,1311
2017/07/11/15:23:02.767159,56094,1499757782,766793012,0,10358,-680,6687,10767,-1042,1160,1260
2017/07/11/15:23:02.782417,56095,1499757782,782025098,0,10355,-706,6685,10770,-1260,941,1348
2017/07/11/15:23:02.804252,56096,1499757782,804078102,0,10359,-711,6689,10763,-1285,802,1334
2017/07/11/15:23:02.826870,56097,1499757782,826750040,0,10364,-689,6695,10756,-1116,1003,1299
2017/07/11/15:23:02.841837,56098,1499757782,841684103,0,10370,-698,6678,10761,-1102,935,1330
2017/07/11/15:23:02.864619,56099,1499757782,864432096,0,10378,-703,6672,10756,-1191,801,1338
2017/07/11/15:23:02.886948,56100,1499757782,886790037,0,10382,-683,6691,10742,-1209,936,1285
2017/07/11/15:23:02.901652,56101,1499757782,901518106,0,10379,-665,6693,10744,-1107,1050,1239
2017/07/11/15:23:02.924176,56102,1499757782,924016952,0,10384,-680,6671,10753,-1144,920,1341
2017/07/11/15:23:02.946822,56103,1499757782,946666002,0,10392,-692,6652,10755,-1211,766,1397
2017/07/11/15:23:02.961684,56104,1499757782,961492061,0,10397,-668,6660,10747,-1157,927,1348
2017/07/11/15:23:02.984233,56105,1499757782,984076976,0,10397,-644,6670,10743,-1109,1024,1262
2017/07/11/15:23:03.006780,56106,1499757783,6592988,0,10397,-637,6659,10750,-1086,941,1324
2017/07/11/15:23:03.022026,56107,1499757783,21770954,0,10399,-632,6652,10752,-1167,890,1401
2017/07/11/15:23:03.044868,56108,1499757783,44749975,0,10400,-616,6653,10752,-1097,973,1408
2017/07/11/15:23:03.066909,56109,1499757783,66714048,0,10398,-606,6658,10752,-1083,1002,1296
2017/07/11/15:23:03.081975,56110,1499757783,81671953,0,10399,-616,6653,10753,-1183,973,1381
2017/07/11/15:23:03.104557,56111,1499757783,104233980,0,10405,-619,6644,10753,-1186,861,1417
2017/07/11/15:23:03.127460,56112,1499757783,127264022,0,10409,-611,6646,10748,-1149,975,1365
2017/07/11/15:23:03.142102,56113,1499757783,141974925,0,10410,-614,6636,10753,-1115,979,1352
2017/07/11/15:23:03.164204,56114,1499757783,164024114,0,10415,-615,6629,10753,-1164,904,1379
2017/07/11/15:23:03.186868,56115,1499757783,186708927,0,10413,-594,6638,10750,-1086,929,1343
2017/07/11/15:23:03.201936,56116,1499757783,201787948,0,10406,-585,6645,10753,-1098,1005,1327
2017/07/11/15:23:03.227238,56117,1499757783,226859092,0,10402,-593,6641,10759,-1097,914,1335
2017/07/11/15:23:03.246961,56118,1499757783,246797084,0,10402,-593,6643,10758,-1190,956,1426
2017/07/11/15:23:03.264061,56119,1499757783,263876914,0,10403,-584,6650,10753,-1189,998,1376
2017/07/11/15:23:03.287162,56120,1499757783,287012100,0,10404,-575,6651,10751,-1122,1008,1307
2017/07/11/15:23:03.306955,56121,1499757783,306780099,0,10408,-572,6646,10751,-1091,961,1301
