time,.header.seq,.header.stamp.secs,.header.stamp.nsecs,.header.frame_id,.quat0,.quat1,.quat2,.quat3,.acc0,.acc1,.acc2
2017/07/11/15:26:54.720047,67670,1499758014,719646930,0,6634,6595,7323,11282,404,2009,256
2017/07/11/15:26:54.750291,67671,1499758014,750081062,0,6652,6579,7219,11347,491,1659,760
2017/07/11/15:26:54.757553,67672,1499758014,757262945,0,6667,6566,7144,11393,696,1683,730
2017/07/11/15:26:54.779937,67673,1499758014,779649972,0,6706,6485,7139,11420,324,1782,655
2017/07/11/15:26:54.802747,67674,1499758014,802273035,0,6713,6485,7193,11382,726,1788,674
2017/07/11/15:26:54.818660,67675,1499758014,818512916,0,6683,6459,7237,11386,676,1817,768
2017/07/11/15:26:54.839898,67676,1499758014,839642047,0,6672,6421,7361,11335,275,2133,491
2017/07/11/15:26:54.865143,67677,1499758014,864892005,0,6681,6349,7442,11317,397,2193,657
2017/07/11/15:26:54.877424,67678,1499758014,877157926,0,6709,6240,7506,11319,294,2024,659
2017/07/11/15:26:54.899811,67679,1499758014,899617910,0,6737,6105,7593,11317,173,1970,654
2017/07/11/15:26:54.922351,67680,1499758014,922079086,0,6788,5950,7682,11310,43,1980,626
2017/07/11/15:26:54.939122,67681,1499758014,938971042,0,6864,5781,7786,11280,9,1944,656
2017/07/11/15:26:54.959653,67682,1499758014,959456920,0,6941,5616,7904,11235,-3,1981,619
2017/07/11/15:26:54.982676,67683,1499758014,982423067,0,7015,5448,8020,11189,-61,2011,677
2017/07/11/15:26:54.998399,67684,1499758014,998255014,0,7090,5281,8132,11141,-138,1977,609
2017/07/11/15:26:55.019885,67685,1499758015,19659996,0,7171,5121,8244,11082,-219,1937,590
2017/07/11/15:26:55.042495,67686,1499758015,42310953,0,7252,4966,8358,11013,-200,1924,607
2017/07/11/15:26:55.057562,67687,1499758015,57223081,0,7323,4816,8473,10945,-215,1907,586
2017/07/11/15:26:55.079620,67688,1499758015,79408884,0,7387,4669,8577,10885,-240,1883,592
2017/07/11/15:26:55.102468,67689,1499758015,102185010,0,7456,4520,8682,10817,-326,1879,574
2017/07/11/15:26:55.118749,67690,1499758015,118416070,0,7530,4377,8782,10744,-376,1872,565
2017/07/11/15:26:55.139527,67691,1499758015,139369010,0,7599,4246,8877,10669,-382,1855,579
2017/07/11/15:26:55.162152,67692,1499758015,161937952,0,7662,4129,8967,10594,-394,1826,532
2017/07/11/15:26:55.185350,67693,1499758015,185152053,0,7731,4014,9056,10512,-451,1859,522
2017/07/11/15:26:55.208551,67694,1499758015,207855939,0,7796,3907,9136,10436,-466,1884,561
2017/07/11/15:26:55.222153,67695,1499758015,222007989,0,7861,3801,9201,10369,-443,1848,569
2017/07/11/15:26:55.245457,67696,1499758015,245271921,0,7932,3692,9256,10304,-506,1840,533
2017/07/11/15:26:55.259673,67697,1499758015,259454965,0,8001,3596,9315,10232,-571,1739,506
2017/07/11/15:26:55.282387,67698,1499758015,281981945,0,8069,3511,9374,10154,-553,1837,495
2017/07/11/15:26:55.305808,67699,1499758015,305597066,0,8142,3423,9417,10086,-592,1830,513
2017/07/11/15:26:55.319986,67700,1499758015,319789886,0,8217,3329,9450,10025,-595,1766,524
2017/07/11/15:26:55.341996,67701,1499758015,341881990,0,8296,3238,9484,9957,-673,1757,516
2017/07/11/15:26:55.366209,67702,1499758015,365223884,0,8374,3148,9509,9897,-680,1798,536
2017/07/11/15:26:55.379781,67703,1499758015,379596948,0,8451,3059,9519,9850,-721,1714,516
2017/07/11/15:26:55.402183,67704,1499758015,402014017,0,8527,2977,9531,9797,-743,1683,505
2017/07/11/15:26:55.424521,67705,1499758015,424391031,0,8607,2898,9537,9744,-810,1729,522
2017/07/11/15:26:55.439776,67706,1499758015,439589023,0,8684,2819,9532,9705,-778,1733,549
2017/07/11/15:26:55.462720,67707,1499758015,462348937,0,8757,2741,9518,9676,-852,1669,554
2017/07/11/15:26:55.484518,67708,1499758015,484390974,0,8827,2672,9503,9646,-838,1635,573
2017/07/11/15:26:55.499479,67709,1499758015,499382019,0,8893,2609,9491,9614,-841,1663,564
2017/07/11/15:26:55.522001,67710,1499758015,521872997,0,8958,2548,9479,9582,-868,1671,524
2017/07/11/15:26:55.544749,67711,1499758015,544589042,0,9026,2488,9455,9558,-901,1627,580
2017/07/11/15:26:55.562460,67712,1499758015,562304973,0,9084,2435,9427,9544,-816,1613,623
2017/07/11/15:26:55.582579,67713,1499758015,582344055,0,9137,2380,9402,9532,-913,1627,606
2017/07/11/15:26:55.604646,67714,1499758015,604463100,0,9193,2319,9370,9525,-957,1624,563
2017/07/11/15:26:55.619517,67715,1499758015,619383096,0,9261,2253,9331,9513,-977,1537,556
2017/07/11/15:26:55.642169,67716,1499758015,641980886,0,9325,2190,9287,9508,-928,1503,626
2017/07/11/15:26:55.664999,67717,1499758015,664794921,0,9383,2136,9245,9504,-906,1521,642
2017/07/11/15:26:55.680564,67718,1499758015,680362939,0,9441,2086,9207,9494,-977,1594,641
2017/07/11/15:26:55.702124,67719,1499758015,701952934,0,9499,2037,9161,9492,-1049,1631,654
2017/07/11/15:26:55.724960,67720,1499758015,724737882,0,9558,1983,9099,9503,-990,1561,696
2017/07/11/15:26:55.739543,67721,1499758015,739356994,0,9615,1927,9031,9524,-955,1421,702
2017/07/11/15:26:55.762749,67722,1499758015,762465953,0,9672,1881,8973,9529,-1044,1496,699
2017/07/11/15:26:55.784825,67723,1499758015,784674882,0,9733,1844,8910,9534,-1019,1554,721
2017/07/11/15:26:55.799680,67724,1499758015,799499034,0,9800,1793,8827,9552,-1002,1472,749
2017/07/11/15:26:55.822768,67725,1499758015,822439908,0,9870,1742,8742,9567,-996,1381,807
2017/07/11/15:26:55.844953,67726,1499758015,844578027,0,9936,1707,8666,9574,-1002,1464,765
2017/07/11/15:26:55.859656,67727,1499758015,859442949,0,9998,1679,8586,9587,-1070,1483,762
2017/07/11/15:26:55.898614,67728,1499758015,898412942,0,10063,1647,8494,9607,-1093,1340,822
2017/07/11/15:26:55.905128,67729,1499758015,904841899,0,10129,1627,8401,9623,-1003,1353,897
2017/07/11/15:26:55.919500,67730,1499758015,919398069,0,10188,1617,8304,9645,-892,1471,928
2017/07/11/15:26:55.942508,67731,1499758015,942183017,0,10252,1593,8193,9677,-987,1402,895
2017/07/11/15:26:55.964741,67732,1499758015,964461088,0,10320,1582,8075,9706,-984,1333,929
2017/07/11/15:26:55.979827,67733,1499758015,979603052,0,10382,1585,7966,9729,-871,1268,1009
2017/07/11/15:26:56.002206,67734,1499758016,1985073,0,10433,1583,7861,9760,-868,1406,1038
2017/07/11/15:26:56.025009,67735,1499758016,24657964,0,10494,1552,7730,9803,-935,1305,1065
2017/07/11/15:26:56.040387,67736,1499758016,39689064,0,10563,1535,7600,9835,-926,1210,1055
2017/07/11/15:26:56.062057,67737,1499758016,61907052,0,10616,1548,7499,9852,-932,1318,1154
2017/07/11/15:26:56.084719,67738,1499758016,84552049,0,10651,1557,7410,9880,-893,1431,1136
2017/07/11/15:26:56.101066,67739,1499758016,99518060,0,10697,1527,7287,9927,-883,1331,1158
2017/07/11/15:26:56.122396,67740,1499758016,122195959,0,10760,1477,7147,9969,-925,1139,1193
2017/07/11/15:26:56.144609,67741,1499758016,144488096,0,10821,1466,7044,9978,-1007,1151,1255
2017/07/11/15:26:56.159891,67742,1499758016,159535884,0,10862,1495,6965,9985,-816,1428,1241
2017/07/11/15:26:56.182054,67743,1499758016,181879997,0,10899,1481,6849,10026,-646,1392,1240
2017/07/11/15:26:56.204855,67744,1499758016,204648017,0,10953,1403,6704,10076,-829,1042,1295
2017/07/11/15:26:56.219741,67745,1499758016,219532966,0,11021,1353,6591,10083,-1015,974,1297
2017/07/11/15:26:56.242190,67746,1499758016,241951942,0,11078,1363,6499,10079,-732,1298,1338
2017/07/11/15:26:56.265076,67747,1499758016,264691114,0,11116,1345,6403,10102,-665,1370,1308
2017/07/11/15:26:56.279701,67748,1499758016,279428958,0,11160,1261,6264,10150,-716,1105,1388
2017/07/11/15:26:56.302443,67749,1499758016,302018880,0,11217,1168,6131,10179,-988,866,1476
2017/07/11/15:26:56.324805,67750,1499758016,324619054,0,11271,1126,6038,10180,-974,1090,1495
2017/07/11/15:26:56.339752,67751,1499758016,339579105,0,11320,1086,5922,10199,-742,1246,1473
2017/07/11/15:26:56.362086,67752,1499758016,361920118,0,11373,1009,5783,10228,-808,1008,1443
2017/07/11/15:26:56.384646,67753,1499758016,384442090,0,11427,958,5654,10244,-877,900,1524
2017/07/11/15:26:56.400083,67754,1499758016,399873971,0,11471,950,5556,10249,-804,969,1541
2017/07/11/15:26:56.422546,67755,1499758016,422251939,0,11505,948,5461,10262,-673,1021,1511
2017/07/11/15:26:56.444579,67756,1499758016,444396972,0,11543,922,5345,10283,-676,996,1560
2017/07/11/15:26:56.467562,67757,1499758016,467199087,0,11587,878,5228,10298,-823,826,1608
2017/07/11/15:26:56.482715,67758,1499758016,482429981,0,11625,863,5128,10306,-750,935,1617
2017/07/11/15:26:56.504442,67759,1499758016,504332065,0,11661,842,5024,10319,-649,965,1628
2017/07/11/15:26:56.527318,67760,1499758016,527057886,0,11698,813,4920,10329,-725,786,1649
2017/07/11/15:26:56.542356,67761,1499758016,542162895,0,11728,814,4848,10329,-816,844,1717
2017/07/11/15:26:56.564608,67762,1499758016,564388036,0,11742,851,4801,10332,-676,943,1654
2017/07/11/15:26:56.587303,67763,1499758016,587146997,0,11749,861,4742,10351,-553,919,1660
2017/07/11/15:26:56.602613,67764,1499758016,602281093,0,11767,844,4678,10361,-671,689,1760
2017/07/11/15:26:56.624515,67765,1499758016,624408960,0,11780,871,4655,10354,-692,772,1760
2017/07/11/15:26:56.647421,67766,1499758016,647057056,0,11778,922,4655,10353,-577,978,1654
2017/07/11/15:26:56.662303,67767,1499758016,662062883,0,11773,930,4634,10366,-586,886,1610
2017/07/11/15:26:56.684830,67768,1499758016,684585094,0,11777,917,4602,10377,-588,768,1727
2017/07/11/15:26:56.699648,67769,1499758016,699472904,0,11778,915,4599,10377,-672,758,1754
2017/07/11/15:26:56.722251,67770,1499758016,721935033,0,11777,922,4610,10373,-689,876,1699
2017/07/11/15:26:56.744923,67771,1499758016,744746923,0,11770,934,4630,10371,-624,950,1640
2017/07/11/15:26:56.759717,67772,1499758016,759485960,0,11766,913,4632,10377,-666,889,1701
2017/07/11/15:26:56.782318,67773,1499758016,782057046,0,11764,886,4630,10382,-704,751,1700
2017/07/11/15:26:56.804579,67774,1499758016,804397106,0,11763,872,4637,10381,-684,853,1672
2017/07/11/15:26:56.827415,67775,1499758016,826910018,0,11765,850,4646,10377,-728,903,1661
2017/07/11/15:26:56.842264,67776,1499758016,842010974,0,11769,834,4643,10376,-686,839,1728
2017/07/11/15:26:56.865289,67777,1499758016,864811897,0,11768,838,4658,10369,-653,836,1635
2017/07/11/15:26:56.887090,67778,1499758016,886842966,0,11765,846,4670,10367,-566,897,1577
2017/07/11/15:26:56.902792,67779,1499758016,902476072,0,11761,831,4676,10370,-650,794,1670
2017/07/11/15:26:56.924700,67780,1499758016,924453973,0,11758,817,4694,10366,-718,799,1675
2017/07/11/15:26:56.947604,67781,1499758016,947416067,0,11757,802,4712,10360,-736,922,1687
2017/07/11/15:26:56.962051,67782,1499758016,961934089,0,11761,776,4720,10355,-733,853,1650
2017/07/11/15:26:56.984905,67783,1499758016,984745979,0,11766,761,4724,10347,-699,752,1622
2017/07/11/15:26:57.007151,67784,1499758017,6953954,0,11766,768,4736,10342,-633,655,1534
2017/07/11/15:26:57.021976,67785,1499758017,21873950,0,11751,801,4760,10346,-711,715,1467
2017/07/11/15:26:57.044867,67786,1499758017,44573068,0,11745,808,4760,10352,-615,995,1547
2017/07/11/15:26:57.067022,67787,1499758017,66911935,0,11750,781,4739,10357,-780,777,1698
2017/07/11/15:26:57.082229,67788,1499758017,81983089,0,11753,779,4742,10353,-812,832,1710
2017/07/11/15:26:57.105780,67789,1499758017,104413986,0,11752,781,4743,10353,-686,936,1659
2017/07/11/15:26:57.127723,67790,1499758017,127250909,0,11754,771,4732,10357,-671,851,1657
2017/07/11/15:26:57.150965,67791,1499758017,150160074,0,11759,763,4729,10353,-733,798,1702
2017/07/11/15:26:57.165328,67792,1499758017,164863109,0,11756,778,4740,10351,-722,862,1649
2017/07/11/15:26:57.187282,67793,1499758017,187056064,0,11751,788,4752,10350,-716,908,1619
2017/07/11/15:26:57.202057,67794,1499758017,201879978,0,11750,779,4749,10354,-674,831,1673
2017/07/11/15:26:57.224631,67795,1499758017,224387884,0,11751,771,4754,10350,-745,826,1662
2017/07/11/15:26:57.247483,67796,1499758017,247279882,0,11754,770,4759,10345,-684,902,1638
2017/07/11/15:26:57.262283,67797,1499758017,261991977,0,11754,762,4764,10343,-716,816,1530
2017/07/11/15:26:57.287048,67798,1499758017,286864042,0,11754,762,4764,10343,-689,828,1621
2017/07/11/15:26:57.315267,67799,1499758017,315042972,0,11755,755,4756,10346,-701,811,1669
2017/07/11/15:26:57.322252,67800,1499758017,322063922,0,11759,753,4758,10340,-742,815,1628
2017/07/11/15:26:57.344817,67801,1499758017,344480037,0,11764,761,4762,10332,-670,917,1590
2017/07/11/15:26:57.367066,67802,1499758017,366945028,0,11769,755,4755,10330,-716,851,1637
2017/07/11/15:26:57.382566,67803,1499758017,382234096,0,11769,754,4754,10330,-710,797,1663
2017/07/11/15:26:57.404548,67804,1499758017,404386997,0,11773,758,4755,10326,-708,843,1620
2017/07/11/15:26:57.427585,67805,1499758017,427400112,0,11777,767,4753,10322,-674,870,1627
2017/07/11/15:26:57.444069,67806,1499758017,443942070,0,11782,765,4747,10319,-751,858,1665
2017/07/11/15:26:57.465515,67807,1499758017,464701890,0,11787,766,4741,10316,-728,795,1655
2017/07/11/15:26:57.487140,67808,1499758017,486937999,0,11789,782,4747,10310,-666,843,1605
2017/07/11/15:26:57.502339,67809,1499758017,502063989,0,11790,790,4752,10305,-651,911,1610
2017/07/11/15:26:57.524930,67810,1499758017,524714946,0,11794,777,4742,10306,-731,799,1646
2017/07/11/15:26:57.547112,67811,1499758017,547009944,0,11801,771,4728,10305,-708,793,1673
2017/07/11/15:26:57.562749,67812,1499758017,562463998,0,11805,770,4725,10301,-703,874,1659
2017/07/11/15:26:57.584848,67813,1499758017,584562063,0,11806,769,4725,10301,-729,795,1645
2017/07/11/15:26:57.607433,67814,1499758017,607203006,0,11809,774,4726,10297,-755,815,1615
2017/07/11/15:26:57.621969,67815,1499758017,621859073,0,11813,785,4726,10292,-675,826,1606
2017/07/11/15:26:57.644783,67816,1499758017,644499063,0,11813,791,4721,10293,-666,871,1605
2017/07/11/15:26:57.667131,67817,1499758017,666897058,0,11815,778,4710,10297,-692,830,1714
2017/07/11/15:26:57.682348,67818,1499758017,682060003,0,11816,775,4709,10296,-767,763,1684
2017/07/11/15:26:57.704736,67819,1499758017,704499006,0,11816,794,4716,10291,-693,856,1618
2017/07/11/15:26:57.727663,67820,1499758017,727572917,0,11816,800,4709,10295,-643,900,1634
2017/07/11/15:26:57.742070,67821,1499758017,741933107,0,11816,784,4695,10302,-711,759,1650
2017/07/11/15:26:57.765131,67822,1499758017,764652013,0,11816,781,4692,10304,-685,820,1698
2017/07/11/15:26:57.787229,67823,1499758017,787050962,0,11816,781,4692,10304,-704,857,1626
2017/07/11/15:26:57.803057,67824,1499758017,802803039,0,11817,785,4690,10304,-683,846,1638
2017/07/11/15:26:57.825369,67825,1499758017,825062990,0,11815,792,4692,10304,-710,850,1651
