time,.header.seq,.header.stamp.secs,.header.stamp.nsecs,.header.frame_id,.ch0,.ch1,.ch2,.ch3,.ch4,.ch5,.ch6,.ch7
2017/07/11/15:20:00.388721,48306,1499757600,388525009,0,70,402,192,84,46,41,94,119
2017/07/11/15:20:00.411492,48307,1499757600,411287069,0,75,418,200,88,48,48,123,117
2017/07/11/15:20:00.433747,48308,1499757600,433559894,0,80,449,208,90,49,51,140,112
2017/07/11/15:20:00.465029,48309,1499757600,464371919,0,82,477,205,91,49,55,168,134
2017/07/11/15:20:00.471537,48310,1499757600,471126079,0,88,518,200,95,58,71,218,186
2017/07/11/15:20:00.495109,48311,1499757600,493696928,0,113,543,198,92,58,73,218,200
2017/07/11/15:20:00.516305,48312,1499757600,516087055,0,117,635,228,101,72,85,275,212
2017/07/11/15:20:00.533187,48313,1499757600,532879114,0,127,661,222,100,77,98,318,238
2017/07/11/15:20:00.553875,48314,1499757600,553585052,0,138,696,269,116,89,99,317,233
2017/07/11/15:20:00.569722,48315,1499757600,569284915,0,146,706,284,119,98,103,306,216
2017/07/11/15:20:00.591933,48316,1499757600,591605901,0,283,722,293,117,110,113,355,247
2017/07/11/15:20:00.613878,48317,1499757600,613641023,0,295,697,277,114,118,112,355,263
2017/07/11/15:20:00.629060,48318,1499757600,628849029,0,300,703,312,118,120,105,353,261
2017/07/11/15:20:00.651427,48319,1499757600,651185989,0,306,704,314,118,120,111,401,303
2017/07/11/15:20:00.673710,48320,1499757600,673574924,0,303,719,298,115,116,112,490,318
2017/07/11/15:20:00.696184,48321,1499757600,696032047,0,194,682,285,114,105,121,519,319
2017/07/11/15:20:00.714966,48322,1499757600,714786052,0,177,734,325,120,87,124,524,322
2017/07/11/15:20:00.735393,48323,1499757600,735203981,0,177,768,345,134,90,134,555,330
2017/07/11/15:20:00.756238,48324,1499757600,756057024,0,172,743,302,120,88,134,550,329
2017/07/11/15:20:00.771712,48325,1499757600,771383047,0,171,682,317,129,108,135,572,384
2017/07/11/15:20:00.795696,48326,1499757600,795149087,0,141,649,327,130,118,127,550,376
2017/07/11/15:20:00.816555,48327,1499757600,816320896,0,136,574,316,128,122,121,565,365
2017/07/11/15:20:00.831303,48328,1499757600,831046104,0,114,535,291,126,126,119,596,358
2017/07/11/15:20:00.853989,48329,1499757600,853826045,0,98,548,304,130,121,129,662,343
2017/07/11/15:20:00.876267,48330,1499757600,876090049,0,93,547,289,119,104,131,647,273
2017/07/11/15:20:00.898795,48331,1499757600,898612976,0,142,567,270,122,103,141,687,468
2017/07/11/15:20:00.916373,48332,1499757600,916117906,0,145,522,225,114,105,150,674,500
2017/07/11/15:20:00.936460,48333,1499757600,936248064,0,157,472,183,104,97,146,636,527
2017/07/11/15:20:00.958897,48334,1499757600,958724021,0,157,529,184,103,119,157,586,556
2017/07/11/15:20:00.975319,48335,1499757600,975114107,0,161,562,181,100,133,181,582,609
2017/07/11/15:20:00.996354,48336,1499757600,996215105,0,136,542,181,91,129,180,590,491
2017/07/11/15:20:01.011425,48337,1499757601,11253118,0,148,556,186,90,129,185,667,542
2017/07/11/15:20:01.034304,48338,1499757601,33920049,0,143,593,183,90,128,183,685,525
2017/07/11/15:20:01.073885,48339,1499757601,73029994,0,144,516,164,86,115,166,707,498
2017/07/11/15:20:01.074704,48340,1499757601,74500083,0,153,475,178,96,104,135,678,451
2017/07/11/15:20:01.093766,48341,1499757601,93611001,0,154,474,190,106,98,122,647,469
2017/07/11/15:20:01.126603,48342,1499757601,126513004,0,141,496,200,107,93,112,620,498
2017/07/11/15:20:01.140998,48343,1499757601,140836000,0,140,443,223,104,96,114,588,489
2017/07/11/15:20:01.154461,48344,1499757601,153692007,0,141,411,213,100,86,108,523,479
2017/07/11/15:20:01.176392,48345,1499757601,176202058,0,126,375,189,89,86,109,577,471
2017/07/11/15:20:01.191243,48346,1499757601,191066980,0,133,353,168,74,83,102,537,449
2017/07/11/15:20:01.213798,48347,1499757601,213649988,0,143,383,160,78,94,107,547,309
2017/07/11/15:20:01.236153,48348,1499757601,236027002,0,133,375,131,80,90,103,523,319
2017/07/11/15:20:01.251300,48349,1499757601,251117944,0,155,429,147,91,125,121,630,346
2017/07/11/15:20:01.275346,48350,1499757601,275135040,0,160,450,151,90,121,113,570,378
2017/07/11/15:20:01.296377,48351,1499757601,296188116,0,154,596,214,96,129,145,626,442
2017/07/11/15:20:01.311602,48352,1499757601,311367034,0,146,540,209,90,121,148,616,455
2017/07/11/15:20:01.350040,48353,1499757601,349422931,0,146,553,219,96,121,159,690,470
2017/07/11/15:20:01.356214,48354,1499757601,356092929,0,120,517,217,88,88,146,668,456
2017/07/11/15:20:01.371635,48355,1499757601,371309995,0,123,538,231,91,79,147,680,424
2017/07/11/15:20:01.401935,48356,1499757601,401773929,0,126,401,183,85,70,117,622,365
2017/07/11/15:20:01.416390,48357,1499757601,416196107,0,117,427,192,85,67,100,581,381
2017/07/11/15:20:01.434550,48358,1499757601,434267997,0,131,420,179,76,65,106,538,363
2017/07/11/15:20:01.462594,48359,1499757601,462320089,0,141,449,182,81,68,121,465,378
2017/07/11/15:20:01.476244,48360,1499757601,476063966,0,142,450,175,79,71,118,432,373
2017/07/11/15:20:01.493062,48361,1499757601,492913007,0,142,419,184,81,71,117,429,362
2017/07/11/15:20:01.515493,48362,1499757601,515325069,0,151,397,176,83,75,120,430,322
2017/07/11/15:20:01.537076,48363,1499757601,536839962,0,145,454,185,87,75,99,390,312
2017/07/11/15:20:01.551363,48364,1499757601,551163911,0,134,432,171,79,70,84,372,290
2017/07/11/15:20:01.573964,48365,1499757601,573698997,0,144,415,171,77,72,112,391,315
2017/07/11/15:20:01.596243,48366,1499757601,596046924,0,131,418,156,79,77,115,410,345
2017/07/11/15:20:01.627447,48367,1499757601,626816987,0,127,429,156,77,80,138,410,360
2017/07/11/15:20:01.633701,48368,1499757601,633533000,0,152,424,180,67,77,144,437,390
2017/07/11/15:20:01.656294,48369,1499757601,656174898,0,157,531,206,68,75,147,437,441
2017/07/11/15:20:01.678727,48370,1499757601,678558111,0,156,532,192,68,71,130,411,454
2017/07/11/15:20:01.694099,48371,1499757601,693883895,0,162,533,195,68,73,130,436,441
2017/07/11/15:20:01.740966,48372,1499757601,740097999,0,167,587,210,68,65,98,386,467
2017/07/11/15:20:01.741698,48373,1499757601,741594076,0,156,548,182,71,67,98,382,444
2017/07/11/15:20:01.754028,48374,1499757601,753784894,0,163,425,150,72,77,117,473,444
2017/07/11/15:20:01.776263,48375,1499757601,776067972,0,151,415,148,69,75,114,465,406
2017/07/11/15:20:01.798996,48376,1499757601,798635959,0,151,458,146,61,67,121,453,391
2017/07/11/15:20:01.821471,48377,1499757601,821188926,0,148,437,125,56,66,117,480,367
2017/07/11/15:20:01.836303,48378,1499757601,836074113,0,167,444,123,48,71,120,463,384
2017/07/11/15:20:01.859130,48379,1499757601,858813047,0,181,450,126,58,67,104,369,350
2017/07/11/15:20:01.874044,48380,1499757601,873840093,0,179,437,126,62,72,106,378,346
2017/07/11/15:20:01.896327,48381,1499757601,896202087,0,212,468,124,63,73,98,343,381
2017/07/11/15:20:01.919330,48382,1499757601,919051885,0,216,394,118,79,84,103,319,370
2017/07/11/15:20:01.933920,48383,1499757601,933705091,0,208,382,123,83,81,96,305,355
2017/07/11/15:20:01.956232,48384,1499757601,956046104,0,203,401,130,78,80,97,283,329
2017/07/11/15:20:01.978919,48385,1499757601,978663921,0,218,526,166,87,78,99,270,330
2017/07/11/15:20:01.994777,48386,1499757601,994555950,0,186,459,170,92,80,102,273,305
2017/07/11/15:20:02.017629,48387,1499757602,17479896,0,178,482,166,80,69,103,286,289
2017/07/11/15:20:02.047027,48388,1499757602,46780109,0,171,498,168,90,74,113,294,322
2017/07/11/15:20:02.054215,48389,1499757602,53980112,0,170,517,189,105,77,101,295,339
2017/07/11/15:20:02.076201,48390,1499757602,76077938,0,173,497,186,101,78,101,298,381
2017/07/11/15:20:02.098902,48391,1499757602,98726034,0,184,495,180,100,84,161,349,398
2017/07/11/15:20:02.113990,48392,1499757602,113687992,0,209,475,177,102,84,167,368,437
2017/07/11/15:20:02.136468,48393,1499757602,136311054,0,222,539,204,98,81,158,349,429
2017/07/11/15:20:02.159716,48394,1499757602,158674955,0,218,525,190,85,80,160,361,435
2017/07/11/15:20:02.181605,48395,1499757602,181356906,0,226,431,172,84,82,163,379,483
2017/07/11/15:20:02.196224,48396,1499757602,196032047,0,218,420,170,82,75,131,321,456
2017/07/11/15:20:02.218870,48397,1499757602,218696117,0,210,448,187,94,87,133,284,438
2017/07/11/15:20:02.234020,48398,1499757602,233809947,0,206,365,155,100,106,176,288,417
2017/07/11/15:20:02.256299,48399,1499757602,256128072,0,202,338,147,100,104,178,303,430
2017/07/11/15:20:02.287269,48400,1499757602,287127971,0,240,365,143,98,106,176,279,453
2017/07/11/15:20:02.294036,48401,1499757602,293875932,0,261,372,139,105,114,175,299,478
2017/07/11/15:20:02.317649,48402,1499757602,317450046,0,261,367,140,98,112,184,282,485
2017/07/11/15:20:02.339195,48403,1499757602,338879108,0,272,363,149,87,89,144,266,516
2017/07/11/15:20:02.353820,48404,1499757602,353640079,0,294,369,152,94,97,156,244,531
2017/07/11/15:20:02.376242,48405,1499757602,376058101,0,261,365,168,119,119,186,243,459
2017/07/11/15:20:02.399248,48406,1499757602,398972034,0,290,443,217,129,130,179,234,477
2017/07/11/15:20:02.413890,48407,1499757602,413711071,0,286,440,220,127,128,163,237,469
2017/07/11/15:20:02.436247,48408,1499757602,436078071,0,269,403,208,132,135,188,251,465
2017/07/11/15:20:02.459130,48409,1499757602,458919048,0,252,386,206,136,134,176,231,432
2017/07/11/15:20:02.473702,48410,1499757602,473588943,0,248,375,192,117,113,154,223,456
2017/07/11/15:20:02.496415,48411,1499757602,496145009,0,193,501,241,103,90,144,211,432
2017/07/11/15:20:02.519725,48412,1499757602,519546985,0,230,529,241,103,91,146,227,440
2017/07/11/15:20:02.533870,48413,1499757602,533657073,0,234,529,242,103,92,133,225,406
2017/07/11/15:20:02.556342,48414,1499757602,556092023,0,227,535,241,94,91,175,227,413
2017/07/11/15:20:02.579837,48415,1499757602,578891992,0,243,563,253,107,104,169,231,385
2017/07/11/15:20:02.601321,48416,1499757602,601140022,0,277,438,172,113,116,185,282,412
2017/07/11/15:20:02.616228,48417,1499757602,616081953,0,243,381,152,111,114,187,275,438
2017/07/11/15:20:02.638939,48418,1499757602,638647079,0,268,422,168,125,125,178,257,461
2017/07/11/15:20:02.661384,48419,1499757602,661175012,0,284,428,174,133,128,169,266,458
2017/07/11/15:20:02.676404,48420,1499757602,676204919,0,277,392,156,133,139,226,265,436
2017/07/11/15:20:02.707479,48421,1499757602,707225084,0,259,340,148,145,151,219,221,379
2017/07/11/15:20:02.721112,48422,1499757602,721004962,0,265,384,166,154,153,215,293,319
2017/07/11/15:20:02.736549,48423,1499757602,736362934,0,260,376,153,142,148,241,321,394
2017/07/11/15:20:02.758775,48424,1499757602,758594989,0,242,359,140,133,145,234,319,405
2017/07/11/15:20:02.781398,48425,1499757602,781138896,0,235,338,142,132,138,189,324,454
2017/07/11/15:20:02.796364,48426,1499757602,796169042,0,262,321,153,126,135,191,319,482
2017/07/11/15:20:02.818811,48427,1499757602,818630933,0,268,271,143,125,139,191,246,487
2017/07/11/15:20:02.841793,48428,1499757602,841481924,0,268,224,149,135,140,153,208,438
2017/07/11/15:20:02.856538,48429,1499757602,856247901,0,301,240,159,150,162,169,228,434
2017/07/11/15:20:02.878723,48430,1499757602,878612041,0,323,250,165,145,156,156,216,468
2017/07/11/15:20:02.902068,48431,1499757602,901519060,0,305,290,170,146,152,149,205,447
2017/07/11/15:20:02.918049,48432,1499757602,917870044,0,300,294,160,149,157,153,215,463
2017/07/11/15:20:02.940099,48433,1499757602,940010070,0,313,288,153,154,163,151,218,463
2017/07/11/15:20:02.961484,48434,1499757602,961189985,0,292,287,150,137,138,127,180,461
2017/07/11/15:20:02.979089,48435,1499757602,977929115,0,285,348,167,137,135,120,182,379
2017/07/11/15:20:03.000741,48436,1499757603,586032,0,277,330,146,128,125,118,183,374
2017/07/11/15:20:03.021655,48437,1499757603,21342992,0,280,365,156,118,115,116,209,359
2017/07/11/15:20:03.038190,48438,1499757603,37785053,0,241,373,156,102,106,123,228,327
2017/07/11/15:20:03.060114,48439,1499757603,59948921,0,271,413,165,124,130,108,243,379
2017/07/11/15:20:03.081508,48440,1499757603,81224918,0,255,359,137,120,129,114,254,384
2017/07/11/15:20:03.097706,48441,1499757603,97536087,0,250,363,131,112,126,105,250,387
2017/07/11/15:20:03.120432,48442,1499757603,120266914,0,251,318,125,110,124,112,216,373
2017/07/11/15:20:03.141626,48443,1499757603,141432046,0,260,320,119,104,113,100,206,364
2017/07/11/15:20:03.163698,48444,1499757603,163566112,0,224,263,114,87,87,90,186,291
2017/07/11/15:20:03.180380,48445,1499757603,180063009,0,218,249,111,86,83,85,151,272
2017/07/11/15:20:03.201275,48446,1499757603,201064109,0,202,201,108,83,73,93,163,254
2017/07/11/15:20:03.223899,48447,1499757603,223742961,0,190,200,104,95,81,99,196,316
2017/07/11/15:20:03.240071,48448,1499757603,239937067,0,181,264,142,97,81,100,192,323
2017/07/11/15:20:03.261856,48449,1499757603,261399984,0,184,320,164,88,78,100,197,303
2017/07/11/15:20:03.287945,48450,1499757603,287833929,0,176,332,170,99,89,104,215,305
2017/07/11/15:20:03.300635,48451,1499757603,300307989,0,195,335,170,100,89,93,232,365
2017/07/11/15:20:03.321529,48452,1499757603,321306943,0,188,348,168,85,79,67,198,321
2017/07/11/15:20:03.343790,48453,1499757603,343646049,0,198,319,153,78,76,70,198,300
2017/07/11/15:20:03.361239,48454,1499757603,361116886,0,230,311,139,77,73,68,185,339
2017/07/11/15:20:03.381415,48455,1499757603,381318092,0,232,304,136,60,60,83,181,347
2017/07/11/15:20:03.403718,48456,1499757603,403579950,0,219,306,139,57,63,82,179,326
2017/07/11/15:20:03.420474,48457,1499757603,420375108,0,215,314,168,59,61,87,193,326
2017/07/11/15:20:03.441306,48458,1499757603,441117048,0,197,284,154,61,61,80,199,340
2017/07/11/15:20:03.463989,48459,1499757603,463651895,0,136,231,139,63,60,87,204,310
2017/07/11/15:20:03.480100,48460,1499757603,479963064,0,128,217,132,59,58,71,219,296
2017/07/11/15:20:03.501221,48461,1499757603,501059055,0,164,210,131,65,58,87,217,281
2017/07/11/15:20:03.523821,48462,1499757603,523644924,0,172,194,103,64,57,83,217,328
2017/07/11/15:20:03.540753,48463,1499757603,540380001,0,171,192,103,66,59,84,225,342
2017/07/11/15:20:03.562887,48464,1499757603,562755107,0,178,192,94,61,58,76,230,347
2017/07/11/15:20:03.584159,48465,1499757603,583806037,0,173,193,101,64,58,74,214,364
2017/07/11/15:20:03.600761,48466,1499757603,600541114,0,136,194,97,57,56,62,217,332
2017/07/11/15:20:03.621622,48467,1499757603,621315002,0,149,160,85,62,57,64,219,307
2017/07/11/15:20:03.643859,48468,1499757603,643616914,0,163,201,82,56,53,68,214,299
2017/07/11/15:20:03.660789,48469,1499757603,660464048,0,170,198,82,59,61,129,209,303
2017/07/11/15:20:03.681249,48470,1499757603,681083917,0,182,249,89,59,63,132,204,280
2017/07/11/15:20:03.704454,48471,1499757603,703862905,0,176,279,99,59,60,134,189,284
2017/07/11/15:20:03.720337,48472,1499757603,720149993,0,171,283,100,52,60,133,202,292
2017/07/11/15:20:03.741223,48473,1499757603,741035938,0,158,258,98,51,59,130,184,280
2017/07/11/15:20:03.763985,48474,1499757603,763736963,0,144,266,92,49,50,73,190,252
2017/07/11/15:20:03.781918,48475,1499757603,781580924,0,134,228,84,43,45,69,197,275
2017/07/11/15:20:03.801259,48476,1499757603,801049947,0,137,194,75,39,44,58,190,279
2017/07/11/15:20:03.823926,48477,1499757603,823755025,0,124,191,72,39,41,59,165,245
2017/07/11/15:20:03.840125,48478,1499757603,840008974,0,134,187,77,44,48,62,196,255
2017/07/11/15:20:03.862872,48479,1499757603,862657070,0,130,168,84,42,46,62,186,251
2017/07/11/15:20:03.883778,48480,1499757603,883559942,0,136,149,78,48,52,74,178,250
2017/07/11/15:20:03.900314,48481,1499757603,900168895,0,137,146,75,51,53,73,173,293
2017/07/11/15:20:03.921171,48482,1499757603,921036005,0,132,143,74,51,52,73,195,287
2017/07/11/15:20:03.944029,48483,1499757603,943756103,0,124,148,66,49,46,71,167,270
2017/07/11/15:20:03.960243,48484,1499757603,960083961,0,128,175,77,49,47,70,172,282
2017/07/11/15:20:03.981449,48485,1499757603,981250047,0,123,196,84,47,37,50,203,272
2017/07/11/15:20:04.004032,48486,1499757604,3798961,0,121,201,85,46,39,59,220,233
2017/07/11/15:20:04.020548,48487,1499757604,20195960,0,129,196,86,50,43,56,205,230
