time,.header.seq,.header.stamp.secs,.header.stamp.nsecs,.header.frame_id,.ch0,.ch1,.ch2,.ch3,.ch4,.ch5,.ch6,.ch7
2017/07/11/15:31:54.360200,83917,1499758314,359970092,0,39,166,46,29,23,23,31,52
2017/07/11/15:31:54.374968,83918,1499758314,374829053,0,41,187,53,30,22,23,31,52
2017/07/11/15:31:54.397526,83919,1499758314,397372007,0,42,189,55,31,23,23,30,50
2017/07/11/15:31:54.428472,83920,1499758314,428273916,0,43,174,73,35,26,26,32,50
2017/07/11/15:31:54.434922,83921,1499758314,434772968,0,49,198,106,38,27,27,42,65
2017/07/11/15:31:54.458004,83922,1499758314,457703113,0,58,217,114,43,31,29,46,103
2017/07/11/15:31:54.480430,83923,1499758314,480168104,0,60,229,123,48,33,33,49,109
2017/07/11/15:31:54.495252,83924,1499758314,494951963,0,65,266,161,52,37,37,50,113
2017/07/11/15:31:54.517534,83925,1499758314,517374992,0,69,284,167,56,40,39,51,117
2017/07/11/15:31:54.540154,83926,1499758314,539925098,0,72,349,168,58,41,42,55,115
2017/07/11/15:31:54.557296,83927,1499758314,556798934,0,75,577,236,72,54,48,79,93
2017/07/11/15:31:54.577811,83928,1499758314,577529907,0,80,599,248,83,58,55,98,112
2017/07/11/15:31:54.601829,83929,1499758314,601555109,0,80,605,238,85,57,53,121,131
2017/07/11/15:31:54.631289,83930,1499758314,630984067,0,102,662,279,90,59,58,133,136
2017/07/11/15:31:54.637872,83931,1499758314,637586116,0,106,719,286,98,66,88,303,205
2017/07/11/15:31:54.669421,83932,1499758314,668508052,0,101,607,253,95,63,91,327,212
2017/07/11/15:31:54.682549,83933,1499758314,682370901,0,99,680,293,99,67,87,336,208
2017/07/11/15:31:54.697942,83934,1499758314,697613954,0,98,708,302,103,71,88,386,212
2017/07/11/15:31:54.720196,83935,1499758314,719953060,0,117,764,301,102,70,87,396,273
2017/07/11/15:31:54.742922,83936,1499758314,742711067,0,115,742,332,105,75,57,323,245
2017/07/11/15:31:54.757477,83937,1499758314,757322072,0,133,716,321,107,82,69,364,296
2017/07/11/15:31:54.780401,83938,1499758314,780204057,0,172,725,295,110,99,74,497,384
2017/07/11/15:31:54.802525,83939,1499758314,802376985,0,181,725,292,117,126,90,501,395
2017/07/11/15:31:54.817865,83940,1499758314,817625999,0,166,636,263,117,131,102,536,367
2017/07/11/15:31:54.840384,83941,1499758314,840186119,0,175,586,217,116,129,110,549,376
2017/07/11/15:31:54.862955,83942,1499758314,862710952,0,165,603,237,118,134,107,534,360
2017/07/11/15:31:54.885551,83943,1499758314,885090112,0,141,502,236,114,128,124,431,303
2017/07/11/15:31:54.900389,83944,1499758314,900134086,0,130,627,259,110,117,135,508,317
2017/07/11/15:31:54.922704,83945,1499758314,922430992,0,153,620,265,104,111,136,530,327
2017/07/11/15:31:54.937504,83946,1499758314,937362909,0,147,641,272,94,110,134,523,331
2017/07/11/15:31:54.960266,83947,1499758314,960025072,0,152,660,265,84,108,136,547,307
2017/07/11/15:31:54.982756,83948,1499758314,982511043,0,149,674,257,72,100,123,553,295
2017/07/11/15:31:54.999333,83949,1499758314,999099969,0,156,555,262,76,94,127,552,288
2017/07/11/15:31:55.020015,83950,1499758315,19870996,0,132,544,248,88,101,130,536,340
2017/07/11/15:31:55.042860,83951,1499758315,42675018,0,125,495,237,91,120,147,557,360
2017/07/11/15:31:55.058373,83952,1499758315,57847976,0,120,461,245,93,120,156,530,406
2017/07/11/15:31:55.080151,83953,1499758315,79888105,0,116,495,247,98,125,173,595,438
2017/07/11/15:31:55.102724,83954,1499758315,102540969,0,109,492,218,95,117,154,498,437
2017/07/11/15:31:55.117499,83955,1499758315,117358922,0,93,496,225,87,110,149,466,427
2017/07/11/15:31:55.140467,83956,1499758315,140252113,0,98,516,220,84,93,163,462,412
2017/07/11/15:31:55.164734,83957,1499758315,162760019,0,105,555,200,81,83,156,468,381
2017/07/11/15:31:55.177733,83958,1499758315,177478075,0,115,483,173,78,76,155,410,377
2017/07/11/15:31:55.200729,83959,1499758315,200428009,0,120,466,160,75,84,174,476,400
2017/07/11/15:31:55.222545,83960,1499758315,222351074,0,139,487,168,73,93,184,469,424
2017/07/11/15:31:55.245809,83961,1499758315,245311975,0,138,465,160,71,84,158,445,415
2017/07/11/15:31:55.260519,83962,1499758315,260147094,0,130,378,146,71,84,159,459,456
2017/07/11/15:31:55.282716,83963,1499758315,282491922,0,118,401,161,73,95,151,508,500
2017/07/11/15:31:55.305571,83964,1499758315,305181980,0,147,443,227,74,110,148,510,523
2017/07/11/15:31:55.323260,83965,1499758315,322824001,0,140,401,220,84,114,153,553,538
2017/07/11/15:31:55.342721,83966,1499758315,342582941,0,139,395,219,86,117,161,548,541
2017/07/11/15:31:55.357530,83967,1499758315,357374906,0,145,433,239,85,116,162,575,522
2017/07/11/15:31:55.380343,83968,1499758315,380060911,0,159,453,251,81,104,157,487,450
2017/07/11/15:31:55.402990,83969,1499758315,402591943,0,130,383,189,72,78,138,429,410
2017/07/11/15:31:55.425394,83970,1499758315,425220966,0,126,404,177,62,76,132,393,358
2017/07/11/15:31:55.440752,83971,1499758315,440278053,0,132,522,210,68,75,118,383,381
2017/07/11/15:31:55.462574,83972,1499758315,462409973,0,127,521,205,69,73,112,314,361
2017/07/11/15:31:55.477931,83973,1499758315,477809906,0,106,524,200,77,76,109,329,360
2017/07/11/15:31:55.501650,83974,1499758315,501537084,0,108,524,204,87,80,122,425,391
2017/07/11/15:31:55.523239,83975,1499758315,522820949,0,118,531,222,88,76,99,422,355
2017/07/11/15:31:55.537600,83976,1499758315,537446975,0,118,424,193,84,78,95,441,356
2017/07/11/15:31:55.560035,83977,1499758315,559879064,0,149,406,184,87,81,100,452,385
2017/07/11/15:31:55.582775,83978,1499758315,582477092,0,147,349,164,77,81,118,468,414
2017/07/11/15:31:55.605026,83979,1499758315,604902982,0,148,346,159,68,83,113,529,393
2017/07/11/15:31:55.620977,83980,1499758315,620414018,0,140,365,131,64,95,123,513,429
2017/07/11/15:31:55.642550,83981,1499758315,642360925,0,142,360,136,64,92,124,504,402
2017/07/11/15:31:55.665254,83982,1499758315,665026903,0,116,329,117,57,94,126,490,378
2017/07/11/15:31:55.680368,83983,1499758315,680180072,0,139,467,156,59,94,111,492,390
2017/07/11/15:31:55.704578,83984,1499758315,704364061,0,142,458,148,59,91,115,345,382
2017/07/11/15:31:55.725247,83985,1499758315,725016117,0,147,407,141,58,70,109,346,344
2017/07/11/15:31:55.740271,83986,1499758315,739980936,0,140,443,139,56,68,126,356,364
2017/07/11/15:31:55.762814,83987,1499758315,762552976,0,147,462,157,55,66,121,338,377
2017/07/11/15:31:55.785270,83988,1499758315,785007953,0,133,349,136,61,63,113,295,342
2017/07/11/15:31:55.800982,83989,1499758315,800601959,0,141,357,131,63,63,102,267,358
2017/07/11/15:31:55.822989,83990,1499758315,822699069,0,156,370,131,73,80,132,299,405
2017/07/11/15:31:55.845328,83991,1499758315,845104932,0,168,325,128,73,85,126,291,411
2017/07/11/15:31:55.860226,83992,1499758315,860044956,0,156,411,152,74,82,126,301,392
2017/07/11/15:31:55.883013,83993,1499758315,882575988,0,155,404,139,66,76,131,305,399
2017/07/11/15:31:55.905967,83994,1499758315,905539035,0,151,390,142,63,88,141,303,397
2017/07/11/15:31:55.920148,83995,1499758315,919938087,0,147,401,148,54,77,126,284,373
2017/07/11/15:31:55.942699,83996,1499758315,942509889,0,147,419,166,55,78,126,257,365
2017/07/11/15:31:55.965243,83997,1499758315,965045928,0,155,298,137,56,78,132,249,382
2017/07/11/15:31:55.980175,83998,1499758315,979958057,0,159,274,132,61,88,129,279,386
2017/07/11/15:31:56.002858,83999,1499758316,2633094,0,159,302,137,66,85,128,275,370
2017/07/11/15:31:56.034644,84000,1499758316,33538103,0,140,281,145,64,84,118,252,350
2017/07/11/15:31:56.040943,84001,1499758316,40091991,0,137,259,128,65,79,114,254,371
2017/07/11/15:31:56.062525,84002,1499758316,62382936,0,153,266,118,73,97,118,245,356
2017/07/11/15:31:56.085442,84003,1499758316,85176944,0,167,262,120,78,99,124,227,363
2017/07/11/15:31:56.100535,84004,1499758316,100142955,0,176,292,122,83,102,122,278,392
2017/07/11/15:31:56.122907,84005,1499758316,122677087,0,186,323,125,82,97,118,285,390
2017/07/11/15:31:56.145239,84006,1499758316,145015954,0,184,308,120,82,103,149,284,353
2017/07/11/15:31:56.160329,84007,1499758316,160072088,0,178,319,122,76,88,169,307,393
2017/07/11/15:31:56.183118,84008,1499758316,182826995,0,178,339,117,67,79,171,303,419
2017/07/11/15:31:56.206361,84009,1499758316,206268072,0,184,291,116,62,80,169,302,408
2017/07/11/15:31:56.220582,84010,1499758316,220230102,0,181,315,115,64,82,169,324,431
2017/07/11/15:31:56.245146,84011,1499758316,244927883,0,191,317,120,79,92,141,333,443
2017/07/11/15:31:56.265206,84012,1499758316,264998912,0,187,298,119,84,102,112,312,415
2017/07/11/15:31:56.280032,84013,1499758316,279875040,0,181,284,124,90,107,100,297,396
2017/07/11/15:31:56.302741,84014,1499758316,302448034,0,188,284,114,90,102,107,240,399
2017/07/11/15:31:56.326223,84015,1499758316,325531005,0,187,195,91,89,103,106,201,372
2017/07/11/15:31:56.340017,84016,1499758316,339881896,0,179,185,82,88,98,103,206,371
2017/07/11/15:31:56.363046,84017,1499758316,362832069,0,197,196,84,88,91,99,197,372
2017/07/11/15:31:56.385679,84018,1499758316,385253906,0,218,215,89,97,102,105,212,336
2017/07/11/15:31:56.400240,84019,1499758316,400089979,0,203,202,86,96,107,121,248,394
2017/07/11/15:31:56.422981,84020,1499758316,422723054,0,210,201,83,97,107,134,248,421
2017/07/11/15:31:56.445369,84021,1499758316,445089101,0,206,197,79,92,99,137,227,410
2017/07/11/15:31:56.460499,84022,1499758316,460283041,0,193,180,81,91,100,149,251,437
2017/07/11/15:31:56.482612,84023,1499758316,482434988,0,163,146,77,76,83,149,241,455
2017/07/11/15:31:56.505198,84024,1499758316,504949092,0,197,203,95,76,77,138,253,407
2017/07/11/15:31:56.527639,84025,1499758316,527467012,0,192,210,98,78,83,132,252,373
2017/07/11/15:31:56.547592,84026,1499758316,547020912,0,190,229,100,74,89,131,251,369
2017/07/11/15:31:56.565253,84027,1499758316,565077066,0,198,240,97,77,92,118,227,331
2017/07/11/15:31:56.588325,84028,1499758316,587794065,0,198,234,89,81,103,125,241,313
2017/07/11/15:31:56.602881,84029,1499758316,602530002,0,187,191,69,80,106,123,193,284
2017/07/11/15:31:56.625117,84030,1499758316,624938964,0,237,215,105,120,133,122,207,404
2017/07/11/15:31:56.647628,84031,1499758316,647478103,0,246,208,106,140,147,118,199,419
2017/07/11/15:31:56.663399,84032,1499758316,662918090,0,248,214,107,142,147,118,203,411
2017/07/11/15:31:56.695235,84033,1499758316,695121049,0,245,215,113,145,150,120,202,398
2017/07/11/15:31:56.707890,84034,1499758316,707551956,0,234,212,116,157,156,131,232,398
2017/07/11/15:31:56.722468,84035,1499758316,722337961,0,269,215,91,135,136,130,219,358
2017/07/11/15:31:56.754220,84036,1499758316,746355056,0,286,218,102,125,122,131,237,397
2017/07/11/15:31:56.768028,84037,1499758316,767720937,0,292,205,112,130,123,132,234,429
2017/07/11/15:31:56.782790,84038,1499758316,782584905,0,297,198,106,123,113,119,220,429
2017/07/11/15:31:56.806433,84039,1499758316,806121110,0,342,196,103,113,102,95,218,520
2017/07/11/15:31:56.828244,84040,1499758316,827827930,0,306,176,102,109,99,100,229,525
2017/07/11/15:31:56.842776,84041,1499758316,842566967,0,285,191,93,93,90,94,211,490
2017/07/11/15:31:56.866413,84042,1499758316,866317987,0,308,239,96,89,87,93,239,496
2017/07/11/15:31:56.887929,84043,1499758316,887722015,0,306,246,95,92,85,109,252,513
2017/07/11/15:31:56.902817,84044,1499758316,902585029,0,248,259,104,93,86,110,231,415
2017/07/11/15:31:56.925381,84045,1499758316,925142049,0,216,238,106,90,83,112,250,377
2017/07/11/15:31:56.948176,84046,1499758316,947875976,0,225,209,100,91,86,117,252,379
2017/07/11/15:31:56.963211,84047,1499758316,962929010,0,160,147,86,77,75,112,221,346
2017/07/11/15:31:56.985243,84048,1499758316,985080003,0,161,146,85,71,71,91,207,327
2017/07/11/15:31:57.007565,84049,1499758317,7390022,0,173,138,83,73,71,100,200,343
2017/07/11/15:31:57.023169,84050,1499758317,22891044,0,172,145,72,71,73,138,197,328
2017/07/11/15:31:57.045317,84051,1499758317,45115947,0,162,180,82,73,73,146,219,324
2017/07/11/15:31:57.067620,84052,1499758317,67430019,0,174,274,104,75,72,145,218,310
2017/07/11/15:31:57.082544,84053,1499758317,82412958,0,170,296,112,78,79,158,216,323
2017/07/11/15:31:57.105633,84054,1499758317,105159044,0,148,305,112,65,68,149,236,300
2017/07/11/15:31:57.127829,84055,1499758317,127409934,0,139,313,114,63,61,106,206,283
2017/07/11/15:31:57.142521,84056,1499758317,142363071,0,126,297,109,59,61,98,197,263
2017/07/11/15:31:57.165770,84057,1499758317,165420055,0,125,218,93,60,64,97,198,337
2017/07/11/15:31:57.187801,84058,1499758317,187577962,0,136,185,87,56,54,83,208,362
2017/07/11/15:31:57.203274,84059,1499758317,202697992,0,137,155,85,57,61,95,209,396
2017/07/11/15:31:57.224982,84060,1499758317,224868059,0,143,142,81,52,56,91,203,390
2017/07/11/15:31:57.248067,84061,1499758317,247764110,0,170,188,90,54,53,84,187,405
2017/07/11/15:31:57.263054,84062,1499758317,262713909,0,163,195,79,50,48,84,202,369
2017/07/11/15:31:57.285106,84063,1499758317,284955024,0,150,189,75,55,54,84,200,317
2017/07/11/15:31:57.316332,84064,1499758317,315718889,0,149,185,66,54,48,72,180,280
2017/07/11/15:31:57.322552,84065,1499758317,322386026,0,148,212,80,59,49,69,186,280
2017/07/11/15:31:57.345632,84066,1499758317,345330953,0,117,210,87,63,53,73,191,327
2017/07/11/15:31:57.367532,84067,1499758317,367413043,0,122,207,88,67,59,76,163,314
2017/07/11/15:31:57.383487,84068,1499758317,383017063,0,121,207,88,63,60,81,157,339
2017/07/11/15:31:57.405709,84069,1499758317,405298948,0,125,206,88,63,62,81,177,379
2017/07/11/15:31:57.428445,84070,1499758317,428339958,0,133,178,74,57,64,86,166,380
2017/07/11/15:31:57.442909,84071,1499758317,442612886,0,144,159,72,50,60,86,164,339
2017/07/11/15:31:57.465354,84072,1499758317,465116977,0,132,141,69,42,59,81,169,346
2017/07/11/15:31:57.487888,84073,1499758317,487629890,0,159,163,73,47,55,73,205,407
2017/07/11/15:31:57.509902,84074,1499758317,509798049,0,152,171,76,42,51,71,218,361
2017/07/11/15:31:57.525573,84075,1499758317,525285005,0,146,164,76,42,52,69,231,379
2017/07/11/15:31:57.547687,84076,1499758317,547468900,0,136,130,56,44,51,62,226,371
2017/07/11/15:31:57.570215,84077,1499758317,570005893,0,135,134,66,49,49,61,240,344
2017/07/11/15:31:57.587255,84078,1499758317,586918115,0,113,182,67,43,53,91,217,267
2017/07/11/15:31:57.607681,84079,1499758317,607433080,0,113,193,64,47,57,102,187,271
2017/07/11/15:31:57.630689,84080,1499758317,630462884,0,110,204,66,51,56,102,213,248
2017/07/11/15:31:57.646580,84081,1499758317,646425008,0,110,205,66,49,56,105,221,236
2017/07/11/15:31:57.667846,84082,1499758317,667602062,0,138,206,56,53,60,110,219,263
2017/07/11/15:31:57.690054,84083,1499758317,689889907,0,137,145,50,55,53,84,218,276
2017/07/11/15:31:57.705610,84084,1499758317,705317020,0,136,190,63,58,54,72,219,289
2017/07/11/15:31:57.727710,84085,1499758317,727436065,0,138,207,67,56,54,69,204,290
2017/07/11/15:31:57.751660,84086,1499758317,751091957,0,133,209,66,55,54,65,195,289
2017/07/11/15:31:57.765794,84087,1499758317,765153884,0,105,218,66,49,51,58,185,263
2017/07/11/15:31:57.787452,84088,1499758317,787348985,0,104,218,66,51,54,57,196,227
2017/07/11/15:31:57.811005,84089,1499758317,810513019,0,103,173,54,55,57,61,209,200
2017/07/11/15:31:57.825315,84090,1499758317,825021982,0,101,158,56,50,53,62,190,203
2017/07/11/15:31:57.847970,84091,1499758317,847717046,0,105,167,58,52,53,64,205,208
2017/07/11/15:31:57.870534,84092,1499758317,870383977,0,132,156,61,52,52,57,197,258
2017/07/11/15:31:57.885754,84093,1499758317,885418891,0,130,161,59,48,52,80,210,274
2017/07/11/15:31:57.907619,84094,1499758317,907423973,0,137,150,59,44,49,84,207,293
2017/07/11/15:31:57.934728,84095,1499758317,934475898,0,133,126,50,47,54,88,207,297
2017/07/11/15:31:57.946257,84096,1499758317,946019887,0,136,111,46,51,59,87,204,298
2017/07/11/15:31:57.967566,84097,1499758317,967425107,0,116,201,81,52,58,89,209,299
2017/07/11/15:31:57.990805,84098,1499758317,990506887,0,112,216,89,56,57,68,203,278
2017/07/11/15:31:58.006864,84099,1499758318,6699085,0,111,214,93,52,52,71,221,288
2017/07/11/15:31:58.027764,84100,1499758318,27553081,0,117,215,93,53,51,76,241,290
