time,.header.seq,.header.stamp.secs,.header.stamp.nsecs,.header.frame_id,.quat0,.quat1,.quat2,.quat3,.acc0,.acc1,.acc2
2017/07/11/15:22:35.474095,54732,1499757755,473916053,0,4914,5661,8724,11666,307,1865,415
2017/07/11/15:22:35.489198,54733,1499757755,489054918,0,4913,5667,8705,11678,326,1984,402
2017/07/11/15:22:35.512228,54734,1499757755,511796951,0,4904,5675,8678,11698,422,1969,427
2017/07/11/15:22:35.534273,54735,1499757755,534085988,0,4895,5681,8646,11723,335,1898,430
2017/07/11/15:22:35.549421,54736,1499757755,549191951,0,4886,5695,8623,11736,323,1815,402
2017/07/11/15:22:35.571552,54737,1499757755,571371078,0,4885,5705,8608,11743,407,1885,383
2017/07/11/15:22:35.594157,54738,1499757755,593949079,0,4886,5702,8576,11768,425,2010,450
2017/07/11/15:22:35.609110,54739,1499757755,608932971,0,4888,5702,8529,11801,411,1866,446
2017/07/11/15:22:35.631792,54740,1499757755,631535053,0,4902,5696,8493,11824,342,1785,427
2017/07/11/15:22:35.654473,54741,1499757755,654176950,0,4936,5682,8457,11842,304,1806,549
2017/07/11/15:22:35.669333,54742,1499757755,669195890,0,4952,5688,8421,11858,434,1761,515
2017/07/11/15:22:35.691587,54743,1499757755,691428899,0,4943,5691,8405,11872,494,1757,493
2017/07/11/15:22:35.714252,54744,1499757755,713993072,0,4938,5688,8403,11877,407,1855,429
2017/07/11/15:22:35.729241,54745,1499757755,729043006,0,4958,5680,8402,11873,339,1913,430
2017/07/11/15:22:35.763132,54746,1499757755,762964010,0,4987,5677,8387,11873,436,1970,433
2017/07/11/15:22:35.782834,54747,1499757755,782234907,0,4986,5679,8372,11883,517,1941,535
2017/07/11/15:22:35.789519,54748,1499757755,789345979,0,4975,5693,8367,11884,484,1855,489
2017/07/11/15:22:35.811766,54749,1499757755,811573028,0,4975,5692,8385,11872,410,1837,540
2017/07/11/15:22:35.834059,54750,1499757755,833925962,0,4975,5667,8414,11863,460,1974,649
2017/07/11/15:22:35.849385,54751,1499757755,849071979,0,4951,5623,8427,11885,344,1917,620
2017/07/11/15:22:35.880021,54752,1499757755,879782915,0,4928,5587,8463,11886,351,1892,490
2017/07/11/15:22:35.894828,54753,1499757755,894233942,0,4921,5523,8528,11873,357,1954,595
2017/07/11/15:22:35.909875,54754,1499757755,909475088,0,4948,5398,8645,11834,111,2128,592
2017/07/11/15:22:35.933134,54755,1499757755,932965993,0,4902,5338,8734,11815,480,2338,528
2017/07/11/15:22:35.954078,54756,1499757755,953918933,0,4913,5216,8807,11811,149,2256,459
2017/07/11/15:22:35.976718,54757,1499757755,976598024,0,4943,5083,8884,11799,91,1995,413
2017/07/11/15:22:35.992450,54758,1499757755,991971969,0,4975,4938,8995,11763,138,1974,522
2017/07/11/15:22:36.014116,54759,1499757756,13925075,0,4989,4792,9122,11720,197,2142,518
2017/07/11/15:22:36.044992,54760,1499757756,44775962,0,5013,4614,9234,11692,38,2210,467
2017/07/11/15:22:36.051741,54761,1499757756,51495075,0,5059,4424,9341,11662,-129,2059,380
2017/07/11/15:22:36.074245,54762,1499757756,74075937,0,5116,4243,9460,11608,-118,1913,387
2017/07/11/15:22:36.099212,54763,1499757756,99019050,0,5165,4070,9597,11535,-87,1923,444
2017/07/11/15:22:36.112265,54764,1499757756,112025022,0,5208,3902,9735,11458,-182,2003,406
2017/07/11/15:22:36.134334,54765,1499757756,134006977,0,5256,3731,9865,11381,-233,1953,397
2017/07/11/15:22:36.157267,54766,1499757756,156989097,0,5308,3562,9988,11305,-238,1993,390
2017/07/11/15:22:36.171568,54767,1499757756,171401023,0,5368,3392,10093,11234,-367,1939,322
2017/07/11/15:22:36.194461,54768,1499757756,194242954,0,5431,3233,10196,11157,-391,1867,312
2017/07/11/15:22:36.216743,54769,1499757756,216579914,0,5493,3090,10301,11072,-393,1878,301
2017/07/11/15:22:36.231890,54770,1499757756,231683969,0,5553,2950,10398,10988,-395,1909,306
2017/07/11/15:22:36.254130,54771,1499757756,253957986,0,5612,2810,10481,10916,-445,1940,282
2017/07/11/15:22:36.277237,54772,1499757756,276822090,0,5675,2676,10551,10850,-505,1866,265
2017/07/11/15:22:36.299064,54773,1499757756,298968076,0,5734,2553,10621,10780,-536,1859,225
2017/07/11/15:22:36.314305,54774,1499757756,314105033,0,5795,2438,10682,10714,-495,1884,226
2017/07/11/15:22:36.336851,54775,1499757756,336630105,0,5858,2326,10739,10647,-574,1812,234
2017/07/11/15:22:36.354453,54776,1499757756,354096889,0,5922,2219,10798,10574,-593,1877,204
2017/07/11/15:22:36.374055,54777,1499757756,373884916,0,5983,2110,10845,10515,-618,1937,223
2017/07/11/15:22:36.396678,54778,1499757756,396471023,0,6041,1995,10861,10487,-621,1921,240
2017/07/11/15:22:36.411822,54779,1499757756,411645889,0,6110,1871,10874,10457,-732,1772,172
2017/07/11/15:22:36.435768,54780,1499757756,435523033,0,6196,1757,10899,10399,-855,1802,148
2017/07/11/15:22:36.457330,54781,1499757756,457051038,0,6281,1657,10924,10338,-796,1892,259
2017/07/11/15:22:36.479272,54782,1499757756,479027032,0,6364,1551,10930,10297,-849,1934,187
2017/07/11/15:22:36.494225,54783,1499757756,493982076,0,6460,1446,10915,10268,-854,1794,239
2017/07/11/15:22:36.525051,54784,1499757756,524771928,0,6561,1352,10909,10223,-870,1763,197
2017/07/11/15:22:36.532205,54785,1499757756,531904935,0,6658,1269,10904,10177,-854,1822,225
2017/07/11/15:22:36.554106,54786,1499757756,553919076,0,6743,1187,10877,10160,-852,1752,220
2017/07/11/15:22:36.577208,54787,1499757756,576946020,0,6834,1104,10844,10144,-940,1669,175
2017/07/11/15:22:36.592109,54788,1499757756,591911077,0,6943,1032,10812,10111,-995,1678,234
2017/07/11/15:22:36.614114,54789,1499757756,613933086,0,7046,981,10784,10075,-932,1716,264
2017/07/11/15:22:36.637182,54790,1499757756,636923074,0,7133,936,10735,10071,-881,1763,277
2017/07/11/15:22:36.651602,54791,1499757756,651479005,0,7227,880,10674,10072,-985,1690,248
2017/07/11/15:22:36.674418,54792,1499757756,674081087,0,7342,828,10612,10060,-1069,1585,238
2017/07/11/15:22:36.696717,54793,1499757756,696525096,0,7446,792,10547,10055,-960,1518,353
2017/07/11/15:22:36.712068,54794,1499757756,711731910,0,7533,768,10481,10061,-890,1686,370
2017/07/11/15:22:36.734085,54795,1499757756,733912944,0,7617,725,10402,10083,-1013,1716,330
2017/07/11/15:22:36.765466,54796,1499757756,765041112,0,7715,668,10299,10118,-1109,1605,373
2017/07/11/15:22:36.771839,54797,1499757756,771594047,0,7823,608,10188,10151,-1030,1474,452
2017/07/11/15:22:36.794205,54798,1499757756,794070959,0,7910,567,10092,10181,-996,1486,452
2017/07/11/15:22:36.816769,54799,1499757756,816567897,0,7995,532,10006,10202,-1088,1621,481
2017/07/11/15:22:36.832092,54800,1499757756,831906080,0,8081,494,9907,10232,-1137,1569,490
2017/07/11/15:22:36.854024,54801,1499757756,853847980,0,8172,461,9797,10268,-1072,1476,586
2017/07/11/15:22:36.876916,54802,1499757756,876718044,0,8250,436,9691,10307,-1006,1424,594
2017/07/11/15:22:36.892138,54803,1499757756,891927003,0,8334,408,9594,10332,-1172,1499,580
2017/07/11/15:22:36.915982,54804,1499757756,915766000,0,8422,388,9483,10363,-1088,1475,586
2017/07/11/15:22:36.936768,54805,1499757756,936630010,0,8514,373,9357,10403,-996,1449,699
2017/07/11/15:22:36.961873,54806,1499757756,961704969,0,8603,356,9236,10439,-1069,1367,696
2017/07/11/15:22:36.974100,54807,1499757756,973923921,0,8691,348,9129,10460,-1169,1435,680
2017/07/11/15:22:36.996686,54808,1499757756,996584892,0,8767,334,8999,10510,-875,1582,761
2017/07/11/15:22:37.019137,54809,1499757757,18959045,0,8842,283,8837,10586,-980,1410,765
2017/07/11/15:22:37.034133,54810,1499757757,33945083,0,8934,222,8681,10639,-1188,1153,839
2017/07/11/15:22:37.056715,54811,1499757757,56548118,0,9029,212,8562,10654,-1123,1257,895
2017/07/11/15:22:37.079613,54812,1499757757,79279899,0,9103,222,8453,10679,-890,1548,964
2017/07/11/15:22:37.094068,54813,1499757757,93890905,0,9161,178,8289,10759,-916,1414,1050
2017/07/11/15:22:37.116823,54814,1499757757,116616964,0,9233,99,8122,10825,-1171,1037,1032
2017/07/11/15:22:37.138973,54815,1499757757,138884067,0,9316,71,8006,10841,-1241,1090,1051
2017/07/11/15:22:37.154040,54816,1499757757,153924942,0,9375,89,7913,10858,-995,1406,1102
2017/07/11/15:22:37.176709,54817,1499757757,176574945,0,9416,68,7792,10910,-942,1400,1101
2017/07/11/15:22:37.199436,54818,1499757757,199090003,0,9468,3,7653,10963,-1133,1162,1135
2017/07/11/15:22:37.214266,54819,1499757757,214046955,0,9530,-36,7533,10993,-1210,1162,1154
2017/07/11/15:22:37.236941,54820,1499757757,236653089,0,9590,-43,7424,11014,-1119,1249,1239
2017/07/11/15:22:37.259148,54821,1499757757,258949995,0,9643,-50,7309,11045,-976,1238,1277
2017/07/11/15:22:37.274180,54822,1499757757,274007081,0,9695,-80,7196,11074,-1003,1159,1283
2017/07/11/15:22:37.296938,54823,1499757757,296509027,0,9757,-123,7079,11095,-1195,1137,1250
2017/07/11/15:22:37.319479,54824,1499757757,319319009,0,9814,-147,6956,11121,-991,1088,1298
2017/07/11/15:22:37.334090,54825,1499757757,333914995,0,9863,-178,6838,11151,-943,1086,1390
2017/07/11/15:22:37.357149,54826,1499757757,356714010,0,9908,-225,6719,11182,-1054,941,1397
2017/07/11/15:22:37.379055,54827,1499757757,378885984,0,9958,-253,6607,11204,-1024,1015,1391
2017/07/11/15:22:37.394252,54828,1499757757,394067049,0,10000,-271,6512,11222,-950,1065,1401
2017/07/11/15:22:37.416858,54829,1499757757,416589975,0,10031,-296,6409,11253,-812,1034,1452
2017/07/11/15:22:37.441429,54830,1499757757,441232919,0,10061,-347,6323,11273,-936,909,1407
2017/07/11/15:22:37.454061,54831,1499757757,453924894,0,10088,-393,6243,11291,-966,990,1430
2017/07/11/15:22:37.477053,54832,1499757757,476828098,0,10121,-440,6151,11312,-973,927,1507
2017/07/11/15:22:37.499477,54833,1499757757,499203920,0,10143,-467,6078,11330,-848,863,1512
2017/07/11/15:22:37.514108,54834,1499757757,513942003,0,10153,-505,6026,11347,-875,1002,1465
2017/07/11/15:22:37.536815,54835,1499757757,536484956,0,10168,-580,5953,11369,-985,835,1456
2017/07/11/15:22:37.559138,54836,1499757757,558948993,0,10189,-638,5887,11381,-1061,726,1485
2017/07/11/15:22:37.574021,54837,1499757757,573872089,0,10204,-662,5836,11392,-887,891,1551
2017/07/11/15:22:37.597901,54838,1499757757,597768068,0,10208,-713,5795,11407,-998,908,1477
2017/07/11/15:22:37.620073,54839,1499757757,619178056,0,10214,-773,5741,11425,-933,753,1441
2017/07/11/15:22:37.634116,54840,1499757757,633949041,0,10224,-815,5703,11432,-1078,715,1521
2017/07/11/15:22:37.656782,54841,1499757757,656620025,0,10226,-813,5703,11430,-1079,764,1530
2017/07/11/15:22:37.679167,54842,1499757757,679009914,0,10217,-814,5702,11439,-902,927,1491
2017/07/11/15:22:37.694052,54843,1499757757,693872928,0,10216,-852,5676,11449,-974,725,1547
2017/07/11/15:22:37.716714,54844,1499757757,716545104,0,10217,-873,5670,11451,-1087,660,1492
2017/07/11/15:22:37.739104,54845,1499757757,738917112,0,10210,-864,5676,11454,-1028,861,1509
2017/07/11/15:22:37.754251,54846,1499757757,754007101,0,10203,-866,5662,11467,-972,775,1479
2017/07/11/15:22:37.776572,54847,1499757757,776421070,0,10201,-880,5648,11475,-1043,736,1575
2017/07/11/15:22:37.799044,54848,1499757757,798903942,0,10198,-878,5652,11476,-1089,734,1549
2017/07/11/15:22:37.814392,54849,1499757757,814083099,0,10190,-853,5665,11478,-1001,819,1442
2017/07/11/15:22:37.836794,54850,1499757757,836659908,0,10183,-841,5655,11491,-940,884,1444
2017/07/11/15:22:37.859208,54851,1499757757,858999013,0,10175,-857,5626,11511,-902,747,1588
2017/07/11/15:22:37.875397,54852,1499757757,875252008,0,10163,-871,5630,11518,-1073,676,1549
2017/07/11/15:22:37.896919,54853,1499757757,896667957,0,10153,-859,5651,11518,-1080,873,1493
2017/07/11/15:22:37.919090,54854,1499757757,918917894,0,10144,-840,5653,11526,-971,867,1532
2017/07/11/15:22:37.934160,54855,1499757757,933967113,0,10133,-835,5649,11538,-1011,837,1533
2017/07/11/15:22:37.956941,54856,1499757757,956763982,0,10123,-845,5650,11545,-1038,776,1516
2017/07/11/15:22:37.979173,54857,1499757757,979039907,0,10117,-841,5661,11545,-1045,804,1527
2017/07/11/15:22:37.994160,54858,1499757757,993966102,0,10112,-837,5668,11546,-1081,892,1560
2017/07/11/15:22:38.016834,54859,1499757758,16587018,0,10110,-837,5666,11549,-1106,841,1532
2017/07/11/15:22:38.039143,54860,1499757758,38980007,0,10109,-833,5659,11554,-924,878,1577
2017/07/11/15:22:38.054022,54861,1499757758,53905963,0,10110,-840,5661,11552,-1043,762,1513
2017/07/11/15:22:38.076890,54862,1499757758,76720952,0,10111,-821,5670,11548,-999,835,1477
2017/07/11/15:22:38.099210,54863,1499757758,98934888,0,10110,-796,5683,11544,-972,863,1431
2017/07/11/15:22:38.121713,54864,1499757758,121500015,0,10104,-783,5686,11549,-909,901,1499
2017/07/11/15:22:38.136747,54865,1499757758,136529922,0,10105,-789,5685,11548,-1050,721,1554
2017/07/11/15:22:38.159442,54866,1499757758,159188985,0,10110,-770,5700,11537,-1058,816,1508
2017/07/11/15:22:38.181859,54867,1499757758,181627988,0,10112,-747,5712,11532,-930,1006,1449
2017/07/11/15:22:38.196683,54868,1499757758,196515083,0,10114,-762,5694,11537,-963,809,1526
2017/07/11/15:22:38.219093,54869,1499757758,218915939,0,10123,-771,5684,11534,-1073,694,1567
2017/07/11/15:22:38.241654,54870,1499757758,241528987,0,10132,-753,5695,11522,-1004,864,1516
2017/07/11/15:22:38.256735,54871,1499757758,256565093,0,10133,-744,5689,11524,-915,909,1484
2017/07/11/15:22:38.279105,54872,1499757758,278964996,0,10135,-749,5676,11529,-974,782,1547
2017/07/11/15:22:38.301489,54873,1499757758,301384925,0,10136,-746,5686,11523,-1007,818,1500
2017/07/11/15:22:38.316703,54874,1499757758,316580057,0,10131,-743,5694,11524,-947,897,1478
2017/07/11/15:22:38.339097,54875,1499757758,338918924,0,10131,-756,5693,11524,-1005,791,1539
2017/07/11/15:22:38.361883,54876,1499757758,361567020,0,10136,-758,5700,11515,-1075,800,1581
2017/07/11/15:22:38.377078,54877,1499757758,376837015,0,10137,-749,5714,11508,-982,864,1495
2017/07/11/15:22:38.399504,54878,1499757758,399270057,0,10135,-750,5719,11507,-958,864,1453
2017/07/11/15:22:38.429711,54879,1499757758,429569005,0,10135,-757,5711,11511,-962,826,1546
2017/07/11/15:22:38.444264,54880,1499757758,444001913,0,10134,-757,5713,11511,-1058,777,1587
2017/07/11/15:22:38.459046,54881,1499757758,458920955,0,10130,-744,5733,11506,-1067,873,1501
2017/07/11/15:22:38.482015,54882,1499757758,481790065,0,10128,-730,5738,11506,-890,900,1470
2017/07/11/15:22:38.497036,54883,1499757758,496618986,0,10128,-730,5736,11506,-925,810,1509
2017/07/11/15:22:38.519276,54884,1499757758,518982887,0,10133,-728,5757,11492,-1032,754,1463
2017/07/11/15:22:38.541805,54885,1499757758,541563987,0,10129,-708,5790,11480,-913,964,1455
2017/07/11/15:22:38.558030,54886,1499757758,557801961,0,10124,-714,5799,11480,-965,847,1506
2017/07/11/15:22:38.579310,54887,1499757758,579090118,0,10119,-724,5802,11481,-992,782,1528
2017/07/11/15:22:38.601842,54888,1499757758,601625919,0,10117,-727,5815,11477,-1080,792,1519
