time,.header.seq,.header.stamp.secs,.header.stamp.nsecs,.header.frame_id,.quat0,.quat1,.quat2,.quat3,.acc0,.acc1,.acc2
2017/07/11/15:57:18.033653,158678,1499759838,33418893,0,4748,5177,8929,11804,241,1856,415
2017/07/11/15:57:18.055851,158679,1499759838,55533885,0,4747,5173,8923,11810,229,1892,457
2017/07/11/15:57:18.070421,158680,1499759838,70305109,0,4742,5178,8916,11816,273,1949,383
2017/07/11/15:57:18.093309,158681,1499759838,93035936,0,4731,5190,8905,11823,260,1950,322
2017/07/11/15:57:18.115376,158682,1499759838,115252017,0,4713,5189,8890,11842,372,1893,517
2017/07/11/15:57:18.131191,158683,1499759838,130929946,0,4685,5194,8913,11834,132,1880,270
2017/07/11/15:57:18.155137,158684,1499759838,154870033,0,4674,5201,8918,11831,279,2128,348
2017/07/11/15:57:18.175506,158685,1499759838,175313949,0,4657,5214,8899,11846,358,1954,409
2017/07/11/15:57:18.190655,158686,1499759838,190517902,0,4649,5231,8888,11850,285,1881,369
2017/07/11/15:57:18.220829,158687,1499759838,220545053,0,4647,5243,8875,11856,314,1847,392
2017/07/11/15:57:18.236007,158688,1499759838,235513925,0,4643,5238,8858,11873,370,1852,460
2017/07/11/15:57:18.250769,158689,1499759838,250579118,0,4645,5231,8844,11885,360,1888,489
2017/07/11/15:57:18.286597,158690,1499759838,286449909,0,4643,5228,8862,11873,383,1909,421
2017/07/11/15:57:18.295963,158691,1499759838,295811891,0,4653,5215,8891,11853,283,1920,405
2017/07/11/15:57:18.310534,158692,1499759838,310383081,0,4660,5199,8923,11834,332,1940,383
2017/07/11/15:57:18.341066,158693,1499759838,340735912,0,4667,5164,8942,11832,334,1944,412
2017/07/11/15:57:18.355837,158694,1499759838,355609893,0,4670,5112,8967,11834,227,1928,405
2017/07/11/15:57:18.370702,158695,1499759838,370520114,0,4669,5067,9003,11827,234,1970,380
2017/07/11/15:57:18.393567,158696,1499759838,393228054,0,4673,5020,9036,11821,286,1991,411
2017/07/11/15:57:18.415882,158697,1499759838,415492057,0,4669,4962,9070,11820,225,2015,401
2017/07/11/15:57:18.438581,158698,1499759838,438153982,0,4660,4902,9088,11835,278,2019,417
2017/07/11/15:57:18.453681,158699,1499759838,453387975,0,4644,4830,9091,11869,343,2081,452
2017/07/11/15:57:18.475942,158700,1499759838,475634098,0,4660,4706,9105,11901,-72,2180,396
2017/07/11/15:57:18.498268,158701,1499759838,498090982,0,4677,4596,9132,11917,87,1890,490
2017/07/11/15:57:18.513805,158702,1499759838,513148069,0,4694,4498,9188,11905,141,2065,444
2017/07/11/15:57:18.535652,158703,1499759838,535501003,0,4722,4380,9244,11894,-8,2125,453
2017/07/11/15:57:18.558307,158704,1499759838,558108091,0,4764,4253,9286,11891,-4,2056,423
2017/07/11/15:57:18.574945,158705,1499759838,574593067,0,4809,4119,9333,11883,-55,2028,433
2017/07/11/15:57:18.599342,158706,1499759838,598892927,0,4864,3984,9381,11869,-124,1995,438
2017/07/11/15:57:18.618177,158707,1499759838,617841005,0,4927,3844,9434,11847,-144,2037,429
2017/07/11/15:57:18.633393,158708,1499759838,633199930,0,4994,3703,9491,11818,-171,1990,435
2017/07/11/15:57:18.655873,158709,1499759838,655713081,0,5067,3567,9542,11788,-192,1998,453
2017/07/11/15:57:18.678215,158710,1499759838,677984952,0,5139,3432,9579,11767,-216,1957,484
2017/07/11/15:57:18.693235,158711,1499759838,692980051,0,5219,3293,9611,11745,-270,1906,433
2017/07/11/15:57:18.716216,158712,1499759838,715847015,0,5311,3156,9644,11715,-309,1889,445
2017/07/11/15:57:18.737992,158713,1499759838,737889051,0,5400,3028,9679,11679,-305,1899,454
2017/07/11/15:57:18.753292,158714,1499759838,753081083,0,5488,2898,9709,11646,-358,1912,494
2017/07/11/15:57:18.778570,158715,1499759838,778294086,0,5576,2770,9727,11620,-412,1905,467
2017/07/11/15:57:18.798522,158716,1499759838,798249006,0,5676,2640,9741,11590,-471,1878,460
2017/07/11/15:57:18.813019,158717,1499759838,812796115,0,5783,2523,9753,11554,-488,1870,471
2017/07/11/15:57:18.835600,158718,1499759838,835335016,0,5884,2413,9756,11524,-444,1880,492
2017/07/11/15:57:18.858503,158719,1499759838,858270883,0,5971,2310,9760,11497,-482,1883,473
2017/07/11/15:57:18.873012,158720,1499759838,872806072,0,6063,2196,9751,11478,-576,1892,503
2017/07/11/15:57:18.895955,158721,1499759838,895725011,0,6172,2079,9736,11454,-650,1856,494
2017/07/11/15:57:18.918454,158722,1499759838,918261051,0,6291,1981,9722,11419,-679,1772,502
2017/07/11/15:57:18.933101,158723,1499759838,932854890,0,6402,1901,9711,11380,-567,1762,528
2017/07/11/15:57:18.955970,158724,1499759838,955758094,0,6493,1833,9704,11346,-575,1821,523
2017/07/11/15:57:18.980165,158725,1499759838,978296041,0,6584,1766,9685,11320,-670,1889,488
2017/07/11/15:57:18.994510,158726,1499759838,994204044,0,6679,1701,9642,11311,-684,1793,515
2017/07/11/15:57:19.016197,158727,1499759839,15851974,0,6770,1649,9599,11301,-692,1673,559
2017/07/11/15:57:19.038408,158728,1499759839,38069963,0,6859,1606,9566,11281,-696,1630,572
2017/07/11/15:57:19.053486,158729,1499759839,53206920,0,6941,1583,9538,11258,-661,1749,571
2017/07/11/15:57:19.075879,158730,1499759839,75493097,0,7023,1563,9497,11245,-666,1803,531
2017/07/11/15:57:19.098586,158731,1499759839,98181962,0,7102,1536,9437,11250,-642,1737,621
2017/07/11/15:57:19.128954,158732,1499759839,128732919,0,7179,1496,9370,11262,-686,1664,666
2017/07/11/15:57:19.135451,158733,1499759839,135283946,0,7263,1459,9310,11263,-771,1624,658
2017/07/11/15:57:19.158069,158734,1499759839,157871007,0,7346,1433,9254,11259,-743,1692,645
2017/07/11/15:57:19.180418,158735,1499759839,180315017,0,7419,1418,9193,11263,-725,1664,661
2017/07/11/15:57:19.195727,158736,1499759839,195535898,0,7489,1405,9125,11273,-696,1639,736
2017/07/11/15:57:19.218732,158737,1499759839,218358993,0,7559,1395,9066,11275,-760,1590,715
2017/07/11/15:57:19.240518,158738,1499759839,240356922,0,7633,1393,9003,11276,-766,1653,723
2017/07/11/15:57:19.255383,158739,1499759839,255232095,0,7705,1403,8939,11277,-760,1571,692
2017/07/11/15:57:19.279850,158740,1499759839,279645919,0,7766,1427,8887,11273,-725,1622,737
2017/07/11/15:57:19.301075,158741,1499759839,300682067,0,7819,1455,8830,11277,-690,1626,790
2017/07/11/15:57:19.315842,158742,1499759839,315602064,0,7872,1485,8763,11289,-726,1594,779
2017/07/11/15:57:19.338056,158743,1499759839,337816953,0,7935,1516,8701,11289,-856,1584,767
2017/07/11/15:57:19.360459,158744,1499759839,360342979,0,7995,1559,8634,11292,-711,1546,851
2017/07/11/15:57:19.375520,158745,1499759839,375298023,0,8037,1607,8569,11305,-579,1598,844
2017/07/11/15:57:19.407001,158746,1499759839,406323909,0,8076,1644,8501,11323,-744,1563,851
2017/07/11/15:57:19.421477,158747,1499759839,420881032,0,8130,1680,8432,11331,-866,1555,839
2017/07/11/15:57:19.442998,158748,1499759839,442874908,0,8186,1728,8351,11343,-691,1521,928
2017/07/11/15:57:19.468343,158749,1499759839,468151092,0,8225,1794,8274,11361,-581,1571,907
2017/07/11/15:57:19.481386,158750,1499759839,480767965,0,8262,1848,8201,11379,-719,1623,875
2017/07/11/15:57:19.495722,158751,1499759839,495485067,0,8316,1911,8117,11389,-769,1514,881
2017/07/11/15:57:19.518798,158752,1499759839,518244028,0,8370,1990,8024,11402,-513,1558,902
2017/07/11/15:57:19.541199,158753,1499759839,540707111,0,8405,2054,7920,11437,-462,1568,1048
2017/07/11/15:57:19.555405,158754,1499759839,555248022,0,8435,2106,7835,11465,-642,1545,971
2017/07/11/15:57:19.578680,158755,1499759839,578361034,0,8483,2159,7732,11489,-601,1580,937
2017/07/11/15:57:19.609188,158756,1499759839,608783960,0,8541,2239,7616,11509,-543,1447,992
2017/07/11/15:57:19.616020,158757,1499759839,615744113,0,8582,2346,7545,11503,-492,1480,1011
2017/07/11/15:57:19.638218,158758,1499759839,637999057,0,8603,2441,7476,11513,-361,1684,1075
2017/07/11/15:57:19.660458,158759,1499759839,660276889,0,8633,2503,7374,11543,-484,1565,970
2017/07/11/15:57:19.675361,158760,1499759839,675261020,0,8680,2575,7266,11560,-524,1452,1012
2017/07/11/15:57:19.698503,158761,1499759839,698030948,0,8718,2681,7181,11560,-385,1422,1066
2017/07/11/15:57:19.720989,158762,1499759839,720742940,0,8736,2796,7126,11554,-267,1562,1051
2017/07/11/15:57:19.736020,158763,1499759839,735562086,0,8746,2880,7064,11564,-291,1682,1006
2017/07/11/15:57:19.757789,158764,1499759839,757714033,0,8772,2934,6967,11589,-435,1497,1027
2017/07/11/15:57:19.780387,158765,1499759839,780277967,0,8807,3013,6867,11602,-328,1368,1136
2017/07/11/15:57:19.796063,158766,1499759839,795794010,0,8823,3109,6804,11602,-155,1531,1167
2017/07/11/15:57:19.818125,158767,1499759839,817996025,0,8825,3186,6752,11609,-281,1600,1081
2017/07/11/15:57:19.849675,158768,1499759839,848831892,0,8842,3250,6684,11619,-351,1539,1066
2017/07/11/15:57:19.856677,158769,1499759839,855757951,0,8860,3323,6608,11627,-250,1492,1125
2017/07/11/15:57:19.877989,158770,1499759839,877861022,0,8869,3393,6535,11642,-149,1516,1220
2017/07/11/15:57:19.900886,158771,1499759839,900366067,0,8870,3448,6487,11652,-281,1536,1196
2017/07/11/15:57:19.915695,158772,1499759839,915436029,0,8875,3508,6442,11655,-297,1602,1130
2017/07/11/15:57:19.938187,158773,1499759839,937951087,0,8880,3573,6384,11663,-205,1609,1155
2017/07/11/15:57:19.961046,158774,1499759839,960727930,0,8892,3624,6313,11677,-161,1498,1261
2017/07/11/15:57:19.975500,158775,1499759839,975316047,0,8899,3673,6264,11682,-191,1501,1273
2017/07/11/15:57:19.997998,158776,1499759839,997761011,0,8907,3715,6232,11680,-228,1735,1196
2017/07/11/15:57:20.020893,158777,1499759840,20509004,0,8919,3750,6166,11695,-160,1586,1186
2017/07/11/15:57:20.043390,158778,1499759840,42990922,0,8941,3780,6088,11709,-147,1442,1296
2017/07/11/15:57:20.058454,158779,1499759840,58176994,0,8955,3812,6037,11715,-107,1527,1281
2017/07/11/15:57:20.080731,158780,1499759840,80382108,0,8969,3843,5998,11714,-178,1638,1203
2017/07/11/15:57:20.103412,158781,1499759840,103240013,0,8991,3878,5936,11717,-139,1554,1220
2017/07/11/15:57:20.118029,158782,1499759840,117858886,0,9008,3916,5871,11724,-23,1552,1252
2017/07/11/15:57:20.140502,158783,1499759840,140295028,0,9020,3937,5809,11739,-29,1484,1256
2017/07/11/15:57:20.162995,158784,1499759840,162851095,0,9033,3960,5771,11740,-139,1398,1218
2017/07/11/15:57:20.177981,158785,1499759840,177794933,0,9045,4003,5748,11728,-59,1641,1220
2017/07/11/15:57:20.206228,158786,1499759840,200366020,0,9061,4033,5702,11727,-67,1643,1256
2017/07/11/15:57:20.223380,158787,1499759840,223067045,0,9078,4053,5642,11736,-53,1458,1272
2017/07/11/15:57:20.238553,158788,1499759840,238341093,0,9094,4075,5593,11740,-32,1471,1266
2017/07/11/15:57:20.260957,158789,1499759840,260675907,0,9117,4095,5543,11739,-48,1486,1267
2017/07/11/15:57:20.283110,158790,1499759840,282798051,0,9130,4134,5508,11731,3,1495,1241
2017/07/11/15:57:20.298554,158791,1499759840,298095941,0,9139,4177,5480,11722,59,1566,1228
2017/07/11/15:57:20.320955,158792,1499759840,320557117,0,9146,4191,5436,11732,74,1482,1230
2017/07/11/15:57:20.343374,158793,1499759840,342946052,0,9158,4191,5392,11743,15,1416,1286
2017/07/11/15:57:20.359919,158794,1499759840,359428882,0,9171,4203,5365,11741,-13,1425,1365
2017/07/11/15:57:20.380612,158795,1499759840,380472898,0,9172,4235,5365,11729,-4,1498,1308
2017/07/11/15:57:20.403381,158796,1499759840,403088092,0,9170,4260,5364,11722,86,1699,1211
2017/07/11/15:57:20.418072,158797,1499759840,417984962,0,9181,4246,5320,11738,47,1510,1238
2017/07/11/15:57:20.442350,158798,1499759840,442079067,0,9192,4233,5283,11751,-30,1281,1371
2017/07/11/15:57:20.463580,158799,1499759840,463370084,0,9193,4252,5288,11741,17,1480,1384
2017/07/11/15:57:20.478159,158800,1499759840,477896928,0,9196,4265,5288,11734,82,1656,1312
2017/07/11/15:57:20.500546,158801,1499759840,500361919,0,9207,4251,5260,11743,38,1498,1253
2017/07/11/15:57:20.523786,158802,1499759840,523493051,0,9213,4237,5242,11751,-29,1354,1242
2017/07/11/15:57:20.538041,158803,1499759840,537782907,0,9212,4236,5245,11751,40,1460,1295
2017/07/11/15:57:20.560654,158804,1499759840,560460090,0,9211,4231,5246,11753,66,1512,1286
2017/07/11/15:57:20.583356,158805,1499759840,583108901,0,9217,4209,5234,11762,69,1476,1342
2017/07/11/15:57:20.591682,158806,1499759840,591376066,0,9224,4193,5227,11765,-46,1386,1349
2017/07/11/15:57:20.605758,158807,1499759840,605518102,0,9220,4214,5243,11753,-5,1442,1257
2017/07/11/15:57:20.628332,158808,1499759840,627933979,0,9210,4234,5254,11749,89,1568,1209
2017/07/11/15:57:20.651618,158809,1499759840,651243925,0,9209,4215,5243,11762,17,1415,1307
2017/07/11/15:57:20.665596,158810,1499759840,665410041,0,9211,4207,5250,11760,-57,1371,1321
2017/07/11/15:57:20.688455,158811,1499759840,688114881,0,9207,4228,5276,11744,-12,1499,1276
2017/07/11/15:57:20.719635,158812,1499759840,718689918,0,9201,4246,5290,11736,64,1597,1189
2017/07/11/15:57:20.725765,158813,1499759840,725516080,0,9202,4234,5273,11747,53,1428,1256
2017/07/11/15:57:20.748045,158814,1499759840,747818946,0,9204,4227,5269,11750,-8,1327,1319
2017/07/11/15:57:20.771915,158815,1499759840,771457910,0,9200,4248,5294,11734,-9,1497,1296
2017/07/11/15:57:20.785564,158816,1499759840,785429000,0,9192,4268,5308,11727,54,1572,1222
2017/07/11/15:57:20.808272,158817,1499759840,808065891,0,9190,4263,5297,11735,67,1483,1235
2017/07/11/15:57:20.832494,158818,1499759840,831263065,0,9192,4247,5283,11746,39,1352,1315
2017/07/11/15:57:20.846063,158819,1499759840,845804929,0,9193,4244,5292,11742,-11,1432,1321
2017/07/11/15:57:20.868489,158820,1499759840,868232965,0,9190,4257,5303,11734,43,1549,1247
