time,.header.seq,.header.stamp.secs,.header.stamp.nsecs,.header.frame_id,.quat0,.quat1,.quat2,.quat3,.acc0,.acc1,.acc2
2017/07/11/15:52:45.677570,145080,1499759565,677396059,0,5148,5298,8761,11708,196,1938,455
2017/07/11/15:52:45.692513,145081,1499759565,692317008,0,5141,5283,8806,11684,161,1976,353
2017/07/11/15:52:45.715598,145082,1499759565,715126991,0,5119,5255,8811,11703,230,2110,485
2017/07/11/15:52:45.737810,145083,1499759565,737612962,0,5105,5249,8792,11725,199,2023,432
2017/07/11/15:52:45.753222,145084,1499759565,752616882,0,5100,5271,8786,11723,219,1890,319
2017/07/11/15:52:45.776324,145085,1499759565,776145935,0,5095,5299,8771,11723,299,1977,302
2017/07/11/15:52:45.797464,145086,1499759565,797306060,0,5085,5282,8740,11758,446,1939,624
2017/07/11/15:52:45.813393,145087,1499759565,812777042,0,5070,5270,8717,11787,39,1724,444
2017/07/11/15:52:45.835341,145088,1499759565,835071086,0,5040,5289,8732,11780,248,1779,381
2017/07/11/15:52:45.857812,145089,1499759565,857661962,0,5007,5308,8757,11768,298,2063,391
2017/07/11/15:52:45.873442,145090,1499759565,872889041,0,4983,5325,8770,11760,243,2133,457
2017/07/11/15:52:45.895035,145091,1499759565,894805908,0,4970,5346,8766,11759,217,1964,428
2017/07/11/15:52:45.917572,145092,1499759565,917373895,0,4945,5373,8754,11767,377,1761,416
2017/07/11/15:52:45.933204,145093,1499759565,932879924,0,4924,5391,8761,11762,389,1867,428
2017/07/11/15:52:45.954899,145094,1499759565,954750061,0,4903,5397,8785,11750,339,1952,453
2017/07/11/15:52:45.977854,145095,1499759565,977616071,0,4896,5391,8800,11745,339,2001,429
2017/07/11/15:52:45.992818,145096,1499759565,992557048,0,4899,5372,8817,11739,370,2003,413
2017/07/11/15:52:46.015445,145097,1499759566,15213012,0,4896,5343,8842,11735,375,1998,461
2017/07/11/15:52:46.045925,145098,1499759566,45722961,0,4883,5299,8876,11735,281,2032,445
2017/07/11/15:52:46.070234,145099,1499759566,68142890,0,4872,5238,8908,11742,184,2112,481
2017/07/11/15:52:46.075363,145100,1499759566,75001955,0,4874,5161,8933,11757,198,2045,455
2017/07/11/15:52:46.103195,145101,1499759566,103025913,0,4864,5112,9020,11715,207,1985,439
2017/07/11/15:52:46.113066,145102,1499759566,112741947,0,4879,5032,9114,11671,133,2131,487
2017/07/11/15:52:46.135343,145103,1499759566,135117053,0,4894,4951,9192,11638,129,2166,432
2017/07/11/15:52:46.166590,145104,1499759566,165832996,0,4929,4844,9247,11625,39,2113,409
2017/07/11/15:52:46.174556,145105,1499759566,174333095,0,4983,4733,9293,11611,33,2000,389
2017/07/11/15:52:46.194823,145106,1499759566,194700956,0,5041,4618,9353,11584,33,1938,448
2017/07/11/15:52:46.218627,145107,1499759566,218223094,0,5090,4506,9424,11549,8,1971,422
2017/07/11/15:52:46.232862,145108,1499759566,232592105,0,5142,4382,9500,11511,-89,2022,384
2017/07/11/15:52:46.256402,145109,1499759566,256249904,0,5222,4249,9569,11468,-206,2023,333
2017/07/11/15:52:46.277843,145110,1499759566,277529954,0,5302,4130,9630,11423,-106,1943,371
2017/07/11/15:52:46.292764,145111,1499759566,292392969,0,5377,4015,9693,11376,-106,1980,391
2017/07/11/15:52:46.315323,145112,1499759566,315114021,0,5449,3896,9744,11340,-165,1991,389
2017/07/11/15:52:46.337368,145113,1499759566,337260007,0,5532,3772,9789,11302,-233,1924,360
2017/07/11/15:52:46.353341,145114,1499759566,352878093,0,5627,3647,9837,11255,-293,1898,355
2017/07/11/15:52:46.374919,145115,1499759566,374747991,0,5717,3537,9884,11203,-257,1921,392
2017/07/11/15:52:46.398076,145116,1499759566,397650957,0,5806,3424,9913,11167,-291,1997,373
2017/07/11/15:52:46.420812,145117,1499759566,420367956,0,5904,3308,9928,11137,-344,1933,388
2017/07/11/15:52:46.434992,145118,1499759566,434824943,0,6004,3192,9934,11113,-338,1816,397
2017/07/11/15:52:46.457879,145119,1499759566,457660913,0,6092,3087,9956,11075,-377,1815,408
2017/07/11/15:52:46.488173,145120,1499759566,487993955,0,6184,2988,9982,11027,-460,1911,397
2017/07/11/15:52:46.494806,145121,1499759566,494680881,0,6282,2882,9984,10998,-468,1946,418
2017/07/11/15:52:46.517586,145122,1499759566,517462968,0,6387,2761,9965,10986,-509,1831,474
2017/07/11/15:52:46.540142,145123,1499759566,539951086,0,6495,2646,9947,10967,-539,1794,450
2017/07/11/15:52:46.555044,145124,1499759566,554877042,0,6600,2543,9939,10936,-587,1862,400
2017/07/11/15:52:46.577598,145125,1499759566,577346086,0,6698,2454,9926,10908,-617,1876,414
2017/07/11/15:52:46.600098,145126,1499759566,599872112,0,6784,2378,9903,10893,-584,1861,458
2017/07/11/15:52:46.622904,145127,1499759566,622737884,0,6865,2304,9874,10884,-575,1823,435
2017/07/11/15:52:46.643459,145128,1499759566,643232107,0,6958,2229,9842,10870,-663,1787,471
2017/07/11/15:52:46.660395,145129,1499759566,660130977,0,7052,2167,9810,10851,-660,1723,512
2017/07/11/15:52:46.675226,145130,1499759566,675045967,0,7132,2122,9793,10823,-637,1788,521
2017/07/11/15:52:46.697650,145131,1499759566,697484970,0,7203,2075,9771,10805,-718,1934,467
2017/07/11/15:52:46.720672,145132,1499759566,720340013,0,7282,2017,9712,10816,-727,1847,496
2017/07/11/15:52:46.735190,145133,1499759566,734960079,0,7372,1944,9635,10837,-715,1654,589
2017/07/11/15:52:46.757740,145134,1499759566,757622957,0,7459,1889,9587,10829,-745,1577,568
2017/07/11/15:52:46.780835,145135,1499759566,780365943,0,7543,1852,9560,10802,-751,1809,565
2017/07/11/15:52:46.794928,145136,1499759566,794698953,0,7623,1813,9514,10793,-758,1860,538
2017/07/11/15:52:46.817907,145137,1499759566,817713975,0,7705,1759,9441,10808,-771,1701,610
2017/07/11/15:52:46.840545,145138,1499759566,840308904,0,7789,1711,9381,10807,-881,1562,615
2017/07/11/15:52:46.855937,145139,1499759566,855782032,0,7869,1696,9338,10790,-784,1719,668
2017/07/11/15:52:46.878284,145140,1499759566,877991914,0,7935,1683,9286,10788,-753,1862,622
2017/07/11/15:52:46.899945,145141,1499759566,899797916,0,7997,1661,9214,10807,-826,1711,657
2017/07/11/15:52:46.915299,145142,1499759566,915047883,0,8068,1640,9155,10808,-852,1555,692
2017/07/11/15:52:46.939433,145143,1499759566,939212083,0,8149,1643,9098,10795,-839,1625,699
2017/07/11/15:52:46.959852,145144,1499759566,959726095,0,8223,1667,9035,10788,-706,1697,732
2017/07/11/15:52:46.974963,145145,1499759566,974756956,0,8291,1675,8962,10796,-759,1644,747
2017/07/11/15:52:46.999272,145146,1499759566,998985052,0,8357,1700,8906,10787,-833,1483,710
2017/07/11/15:52:47.020548,145147,1499759567,20071029,0,8424,1748,8870,10757,-765,1589,735
2017/07/11/15:52:47.036853,145148,1499759567,36717891,0,8483,1805,8819,10742,-702,1708,703
2017/07/11/15:52:47.042765,145149,1499759567,42536020,0,8540,1847,8738,10757,-675,1505,819
2017/07/11/15:52:47.065368,145150,1499759567,64969062,0,8597,1889,8673,10756,-754,1420,862
2017/07/11/15:52:47.088179,145151,1499759567,87930917,0,8654,1945,8619,10744,-702,1647,803
2017/07/11/15:52:47.102989,145152,1499759567,102751970,0,8697,2003,8552,10752,-619,1738,744
2017/07/11/15:52:47.128061,145153,1499759567,127846002,0,8747,2036,8457,10782,-732,1500,803
2017/07/11/15:52:47.148787,145154,1499759567,148118972,0,8810,2095,8370,10787,-679,1210,871
2017/07/11/15:52:47.162763,145155,1499759567,162544012,0,8863,2191,8335,10751,-583,1497,836
2017/07/11/15:52:47.184956,145156,1499759567,184782981,0,8888,2285,8305,10734,-574,1793,762
2017/07/11/15:52:47.208230,145157,1499759567,208058118,0,8927,2340,8221,10755,-681,1632,837
2017/07/11/15:52:47.227512,145158,1499759567,227269887,0,8988,2399,8122,10766,-708,1305,865
2017/07/11/15:52:47.245467,145159,1499759567,245174884,0,9043,2494,8050,10752,-604,1432,941
2017/07/11/15:52:47.268035,145160,1499759567,267949104,0,9073,2605,8010,10730,-553,1678,860
2017/07/11/15:52:47.282795,145161,1499759567,282526016,0,9101,2696,7961,10721,-699,1707,738
2017/07/11/15:52:47.308116,145162,1499759567,307807922,0,9155,2772,7862,10728,-618,1607,878
2017/07/11/15:52:47.328778,145163,1499759567,327972888,0,9212,2834,7760,10738,-531,1451,1006
2017/07/11/15:52:47.342990,145164,1499759567,342590093,0,9257,2914,7683,10733,-608,1445,981
2017/07/11/15:52:47.364985,145165,1499759567,364799976,0,9298,3007,7621,10716,-523,1682,937
2017/07/11/15:52:47.389133,145166,1499759567,388391017,0,9341,3079,7530,10722,-448,1756,946
2017/07/11/15:52:47.403125,145167,1499759567,402828931,0,9392,3123,7422,10740,-567,1517,1036
2017/07/11/15:52:47.425071,145168,1499759567,424900054,0,9434,3182,7341,10741,-576,1428,1110
2017/07/11/15:52:47.448728,145169,1499759567,448054075,0,9470,3248,7284,10729,-463,1668,1015
2017/07/11/15:52:47.462683,145170,1499759567,462263107,0,9512,3287,7195,10740,-386,1775,1019
2017/07/11/15:52:47.485717,145171,1499759567,485390901,0,9561,3311,7088,10761,-502,1433,1191
2017/07/11/15:52:47.508836,145172,1499759567,508173942,0,9597,3378,7030,10746,-499,1473,1256
2017/07/11/15:52:47.522534,145173,1499759567,522264957,0,9628,3445,6994,10720,-472,1835,1130
2017/07/11/15:52:47.545504,145174,1499759567,545181989,0,9682,3457,6886,10737,-397,1835,1117
2017/07/11/15:52:47.568298,145175,1499759567,568021059,0,9753,3448,6737,10771,-393,1317,1196
2017/07/11/15:52:47.591272,145176,1499759567,591003894,0,9806,3490,6651,10763,-428,1349,1185
2017/07/11/15:52:47.605472,145177,1499759567,605199098,0,9843,3551,6591,10746,-344,1799,1177
2017/07/11/15:52:47.628548,145178,1499759567,628314971,0,9898,3560,6479,10760,-380,1722,1213
2017/07/11/15:52:47.652066,145179,1499759567,650791883,0,9958,3576,6360,10771,-343,1457,1127
2017/07/11/15:52:47.664915,145180,1499759567,664743900,0,10003,3609,6262,10776,-203,1579,1082
2017/07/11/15:52:47.688385,145181,1499759567,688275098,0,10047,3601,6146,10804,-268,1321,1224
2017/07/11/15:52:47.711648,145182,1499759567,710807085,0,10087,3609,6064,10810,-349,1242,1234
2017/07/11/15:52:47.725070,145183,1499759567,724890947,0,10124,3632,6007,10800,-224,1686,1192
2017/07/11/15:52:47.748523,145184,1499759567,748228073,0,10157,3635,5931,10809,-253,1510,1193
2017/07/11/15:52:47.771108,145185,1499759567,770703077,0,10183,3637,5869,10818,-282,1454,1235
2017/07/11/15:52:47.785786,145186,1499759567,785342931,0,10206,3634,5814,10827,-213,1430,1296
2017/07/11/15:52:47.807468,145187,1499759567,807270050,0,10228,3628,5769,10833,-244,1338,1305
2017/07/11/15:52:47.831751,145188,1499759567,831362962,0,10247,3631,5742,10828,-279,1446,1300
2017/07/11/15:52:47.845212,145189,1499759567,844964027,0,10259,3641,5722,10824,-250,1498,1309
2017/07/11/15:52:47.868149,145190,1499759567,867985963,0,10268,3637,5704,10827,-249,1465,1340
2017/07/11/15:52:47.891793,145191,1499759567,891019105,0,10280,3626,5686,10828,-299,1363,1379
2017/07/11/15:52:47.905648,145192,1499759567,905245065,0,10287,3638,5687,10817,-306,1375,1349
2017/07/11/15:52:47.928075,145193,1499759567,927908897,0,10289,3648,5697,10806,-258,1610,1291
2017/07/11/15:52:47.951634,145194,1499759567,950918912,0,10303,3617,5672,10816,-244,1552,1292
2017/07/11/15:52:47.967756,145195,1499759567,967626094,0,10321,3579,5640,10829,-297,1248,1410
2017/07/11/15:52:47.987567,145196,1499759567,987430095,0,10325,3591,5650,10816,-321,1273,1379
2017/07/11/15:52:48.011352,145197,1499759568,10961055,0,10325,3610,5668,10800,-258,1601,1318
2017/07/11/15:52:48.025035,145198,1499759568,24861097,0,10334,3596,5653,10804,-298,1463,1287
2017/07/11/15:52:48.048330,145199,1499759568,48206090,0,10341,3586,5639,10807,-265,1326,1312
2017/07/11/15:52:48.070767,145200,1499759568,70559978,0,10340,3602,5651,10797,-273,1371,1310
2017/07/11/15:52:48.085455,145201,1499759568,85161924,0,10337,3613,5663,10790,-247,1535,1304
2017/07/11/15:52:48.113310,145202,1499759568,113023996,0,10343,3591,5644,10802,-235,1493,1325
2017/07/11/15:52:48.131897,145203,1499759568,131043910,0,10354,3563,5622,10812,-310,1244,1391
2017/07/11/15:52:48.145524,145204,1499759568,145047903,0,10356,3576,5635,10799,-296,1396,1381
2017/07/11/15:52:48.167404,145205,1499759568,167248010,0,10352,3601,5657,10783,-286,1530,1267
2017/07/11/15:52:48.191240,145206,1499759568,190665960,0,10354,3591,5647,10790,-216,1530,1277
2017/07/11/15:52:48.205449,145207,1499759568,205162048,0,10363,3561,5618,10806,-270,1199,1380
2017/07/11/15:52:48.227445,145208,1499759568,227350950,0,10365,3571,5628,10796,-312,1260,1353
2017/07/11/15:52:48.251161,145209,1499759568,250868082,0,10359,3597,5657,10777,-280,1592,1261
2017/07/11/15:52:48.265610,145210,1499759568,265166997,0,10359,3591,5657,10779,-294,1541,1230
2017/07/11/15:52:48.287470,145211,1499759568,287276029,0,10361,3577,5639,10791,-282,1297,1288
2017/07/11/15:52:48.310845,145212,1499759568,310575962,0,10359,3587,5646,10786,-301,1250,1342
2017/07/11/15:52:48.325404,145213,1499759568,325141906,0,10353,3610,5668,10773,-275,1507,1300
2017/07/11/15:52:48.347860,145214,1499759568,347398042,0,10352,3610,5673,10772,-289,1554,1256
2017/07/11/15:52:48.370825,145215,1499759568,370598077,0,10355,3596,5659,10780,-299,1419,1289
2017/07/11/15:52:48.386118,145216,1499759568,385993003,0,10359,3594,5648,10784,-286,1299,1319
2017/07/11/15:52:48.407526,145217,1499759568,407361984,0,10356,3608,5656,10777,-262,1517,1287
2017/07/11/15:52:48.431839,145218,1499759568,430906057,0,10360,3598,5645,10782,-267,1589,1312
2017/07/11/15:52:48.445728,145219,1499759568,445420980,0,10370,3575,5617,10795,-281,1334,1332
2017/07/11/15:52:48.467653,145220,1499759568,467392921,0,10372,3583,5618,10790,-284,1311,1302
2017/07/11/15:52:48.491729,145221,1499759568,490787029,0,10372,3593,5626,10783,-237,1543,1303
2017/07/11/15:52:48.505976,145222,1499759568,505563020,0,10376,3581,5611,10790,-296,1397,1360
2017/07/11/15:52:48.528015,145223,1499759568,527921915,0,10381,3576,5608,10789,-295,1430,1357
2017/07/11/15:52:48.551780,145224,1499759568,550928115,0,10393,3553,5591,10794,-256,1631,1321
2017/07/11/15:52:48.565722,145225,1499759568,565542936,0,10414,3502,5542,10815,-285,1308,1331
2017/07/11/15:52:48.587560,145226,1499759568,587400913,0,10425,3481,5528,10819,-329,1225,1338
2017/07/11/15:52:48.610878,145227,1499759568,610637903,0,10425,3486,5544,10809,-292,1460,1331
2017/07/11/15:52:48.625734,145228,1499759568,625308990,0,10428,3473,5543,10810,-296,1370,1331
2017/07/11/15:52:48.647696,145229,1499759568,647459983,0,10430,3468,5546,10809,-314,1299,1335
2017/07/11/15:52:48.671702,145230,1499759568,670892000,0,10428,3475,5554,10805,-268,1476,1366
2017/07/11/15:52:48.685715,145231,1499759568,685290098,0,10429,3472,5549,10807,-318,1411,1367
