time,.header.seq,.header.stamp.secs,.header.stamp.nsecs,.header.frame_id,.quat0,.quat1,.quat2,.quat3,.acc0,.acc1,.acc2
2017/07/11/16:02:44.675567,174979,1499760164,675194978,0,2092,3092,9950,12469,103,1862,367
2017/07/11/16:02:44.696496,174980,1499760164,696290016,0,2069,3103,9927,12488,327,1842,473
2017/07/11/16:02:44.718800,174981,1499760164,718648910,0,2052,3119,9931,12484,312,1779,363
2017/07/11/16:02:44.735321,174982,1499760164,735130071,0,2073,3111,9939,12476,250,1990,345
2017/07/11/16:02:44.756219,174983,1499760164,756036996,0,2100,3113,9922,12484,314,1936,340
2017/07/11/16:02:44.779696,174984,1499760164,779333114,0,2123,3113,9889,12506,424,1912,342
2017/07/11/16:02:44.794581,174985,1499760164,794039011,0,2134,3101,9854,12535,373,1876,392
2017/07/11/16:02:44.817900,174986,1499760164,817562103,0,2156,3081,9834,12552,314,1902,426
2017/07/11/16:02:44.843532,174987,1499760164,843410015,0,2121,3093,10036,12394,206,2046,252
2017/07/11/16:02:44.851086,174988,1499760164,850672006,0,2111,3088,10036,12397,247,2066,284
2017/07/11/16:02:44.854964,174989,1499760164,854814052,0,2195,3022,9868,12533,239,1948,427
2017/07/11/16:02:44.876606,174990,1499760164,876307964,0,2209,2983,9895,12519,192,2051,404
2017/07/11/16:02:44.898683,174991,1499760164,898395061,0,2221,2943,9900,12522,214,2000,424
2017/07/11/16:02:44.915439,174992,1499760164,915232896,0,2232,2894,9891,12538,239,1879,494
2017/07/11/16:02:44.938335,174993,1499760164,938131093,0,2239,2840,9897,12545,175,1874,454
2017/07/11/16:02:44.958676,174994,1499760164,958499908,0,2239,2780,9925,12536,142,2013,384
2017/07/11/16:02:44.981280,174995,1499760164,981060981,0,2251,2716,9943,12534,142,2132,412
2017/07/11/16:02:45.005118,174996,1499760165,4920005,0,2254,2643,9942,12550,199,2099,448
2017/07/11/16:02:45.034131,174997,1499760165,33998966,0,2254,2553,9932,12576,129,2012,432
2017/07/11/16:02:45.041137,174998,1499760165,40971040,0,2237,2471,9929,12598,174,2229,420
2017/07/11/16:02:45.056631,174999,1499760165,56334972,0,2272,2356,9954,12594,-43,2127,391
2017/07/11/16:02:45.079077,175000,1499760165,78826904,0,2301,2237,9960,12605,85,1997,505
2017/07/11/16:02:45.101036,175001,1499760165,100925922,0,2338,2109,9983,12603,47,2053,477
2017/07/11/16:02:45.116656,175002,1499760165,116321086,0,2367,1973,10015,12594,0,2069,493
2017/07/11/16:02:45.139359,175003,1499760165,138971090,0,2396,1829,10050,12582,-98,2104,436
2017/07/11/16:02:45.161147,175004,1499760165,160919904,0,2444,1672,10089,12564,-193,2149,393
2017/07/11/16:02:45.177096,175005,1499760165,176486968,0,2498,1519,10104,12560,-130,2055,454
2017/07/11/16:02:45.198654,175006,1499760165,198550939,0,2548,1364,10113,12561,-142,1904,542
2017/07/11/16:02:45.221701,175007,1499760165,221438884,0,2606,1203,10151,12535,-263,1898,477
2017/07/11/16:02:45.236312,175008,1499760165,236035108,0,2677,1038,10205,12491,-369,2033,398
2017/07/11/16:02:45.268189,175009,1499760165,268101930,0,2761,879,10229,12465,-337,2010,457
2017/07/11/16:02:45.281939,175010,1499760165,281464099,0,2840,721,10226,12460,-287,1843,516
2017/07/11/16:02:45.296458,175011,1499760165,296174049,0,2920,555,10232,12445,-388,1780,496
2017/07/11/16:02:45.319037,175012,1499760165,318667888,0,3024,377,10251,12411,-529,1879,441
2017/07/11/16:02:45.342084,175013,1499760165,341501951,0,3148,200,10247,12388,-548,1920,450
2017/07/11/16:02:45.356123,175014,1499760165,355969905,0,3265,26,10226,12377,-548,1872,511
2017/07/11/16:02:45.378689,175015,1499760165,378563880,0,3373,-148,10197,12370,-641,1841,522
2017/07/11/16:02:45.401877,175016,1499760165,401388883,0,3496,-331,10173,12353,-769,1822,460
2017/07/11/16:02:45.416165,175017,1499760165,415998935,0,3633,-497,10154,12323,-806,1827,481
2017/07/11/16:02:45.438729,175018,1499760165,438560962,0,3759,-640,10138,12292,-729,1836,493
2017/07/11/16:02:45.461837,175019,1499760165,461354970,0,3865,-778,10106,12277,-742,1853,505
2017/07/11/16:02:45.476006,175020,1499760165,475888967,0,3968,-917,10067,12267,-826,1706,488
2017/07/11/16:02:45.498498,175021,1499760165,498357057,0,4089,-1048,10037,12241,-898,1656,484
2017/07/11/16:02:45.530022,175022,1499760165,529474020,0,4203,-1151,10024,12204,-845,1756,453
2017/07/11/16:02:45.536553,175023,1499760165,536266088,0,4294,-1239,9993,12189,-788,1808,499
2017/07/11/16:02:45.558680,175024,1499760165,558572053,0,4363,-1329,9940,12199,-808,1666,522
2017/07/11/16:02:45.582834,175025,1499760165,581866025,0,4439,-1426,9885,12205,-909,1556,490
2017/07/11/16:02:45.604250,175026,1499760165,603683948,0,4530,-1513,9845,12193,-976,1561,498
2017/07/11/16:02:45.620750,175027,1499760165,620615959,0,4622,-1580,9804,12184,-924,1606,536
2017/07/11/16:02:45.641765,175028,1499760165,641427993,0,4695,-1639,9752,12189,-866,1635,567
2017/07/11/16:02:45.656660,175029,1499760165,656210899,0,4755,-1707,9691,12205,-860,1588,536
2017/07/11/16:02:45.679526,175030,1499760165,679107904,0,4823,-1785,9626,12219,-988,1562,529
2017/07/11/16:02:45.703177,175031,1499760165,702897071,0,4899,-1854,9551,12238,-1046,1556,595
2017/07/11/16:02:45.723992,175032,1499760165,723561048,0,4972,-1911,9479,12255,-974,1542,605
2017/07/11/16:02:45.746917,175033,1499760165,746449947,0,5040,-1963,9418,12266,-1008,1524,617
2017/07/11/16:02:45.761783,175034,1499760165,761264085,0,5100,-2009,9365,12274,-1057,1563,616
2017/07/11/16:02:45.783745,175035,1499760165,783529043,0,5164,-2050,9297,12293,-1087,1596,578
2017/07/11/16:02:45.806626,175036,1499760165,806163072,0,5227,-2084,9207,12328,-1048,1493,656
2017/07/11/16:02:45.821029,175037,1499760165,820919036,0,5286,-2109,9121,12363,-1056,1413,743
2017/07/11/16:02:45.852523,175038,1499760165,851788043,0,5343,-2130,9060,12379,-1116,1460,715
2017/07/11/16:02:45.859142,175039,1499760165,858793020,0,5399,-2145,9000,12396,-1113,1568,675
2017/07/11/16:02:45.881317,175040,1499760165,881021022,0,5452,-2154,8918,12431,-1091,1470,705
2017/07/11/16:02:45.903744,175041,1499760165,903558015,0,5503,-2153,8834,12469,-1053,1390,776
2017/07/11/16:02:45.918761,175042,1499760165,918638944,0,5549,-2151,8770,12493,-1101,1393,766
2017/07/11/16:02:45.941280,175043,1499760165,941097021,0,5601,-2142,8709,12514,-1199,1471,758
2017/07/11/16:02:45.963832,175044,1499760165,963603973,0,5646,-2118,8649,12540,-1075,1385,733
2017/07/11/16:02:45.978600,175045,1499760165,978454113,0,5675,-2089,8584,12576,-1026,1447,855
2017/07/11/16:02:46.001645,175046,1499760166,1318931,0,5703,-2070,8518,12612,-1112,1384,823
2017/07/11/16:02:46.024460,175047,1499760166,24008035,0,5744,-2039,8459,12637,-1184,1302,835
2017/07/11/16:02:46.038630,175048,1499760166,38455963,0,5786,-1987,8417,12655,-1076,1385,854
2017/07/11/16:02:46.061430,175049,1499760166,61142921,0,5809,-1936,8383,12675,-1045,1414,866
2017/07/11/16:02:46.083847,175050,1499760166,83592891,0,5830,-1890,8333,12705,-1128,1351,873
2017/07/11/16:02:46.098823,175051,1499760166,98545074,0,5865,-1835,8270,12738,-1063,1374,896
2017/07/11/16:02:46.121524,175052,1499760166,121231079,0,5900,-1773,8210,12769,-1009,1305,945
2017/07/11/16:02:46.144299,175053,1499760166,143975973,0,5927,-1702,8185,12782,-992,1325,923
2017/07/11/16:02:46.158804,175054,1499760166,158657073,0,5940,-1632,8162,12800,-954,1496,934
2017/07/11/16:02:46.181580,175055,1499760166,181205034,0,5947,-1574,8125,12828,-1024,1369,887
2017/07/11/16:02:46.204347,175056,1499760166,203939914,0,5958,-1515,8075,12861,-995,1284,991
2017/07/11/16:02:46.226467,175057,1499760166,226074934,0,5976,-1440,8039,12884,-916,1281,1013
2017/07/11/16:02:46.241397,175058,1499760166,241146087,0,5995,-1359,8025,12892,-908,1341,995
2017/07/11/16:02:46.263598,175059,1499760166,263484001,0,6009,-1275,8029,12892,-966,1408,934
2017/07/11/16:02:46.279139,175060,1499760166,278706073,0,6012,-1196,8014,12908,-896,1524,962
2017/07/11/16:02:46.301093,175061,1499760166,300920009,0,6012,-1129,7964,12944,-837,1320,1027
2017/07/11/16:02:46.324038,175062,1499760166,323483943,0,6028,-1062,7927,12965,-879,1354,1078
2017/07/11/16:02:46.338717,175063,1499760166,338594913,0,6044,-991,7908,12976,-929,1421,1016
2017/07/11/16:02:46.362499,175064,1499760166,362375020,0,6049,-912,7883,12994,-875,1392,1014
2017/07/11/16:02:46.400476,175065,1499760166,400207996,0,6054,-828,7865,13008,-803,1390,1005
2017/07/11/16:02:46.401881,175066,1499760166,401793003,0,6064,-750,7833,13028,-822,1435,1101
2017/07/11/16:02:46.421244,175067,1499760166,421102046,0,6072,-668,7804,13046,-812,1342,1145
2017/07/11/16:02:46.444386,175068,1499760166,443983078,0,6081,-587,7792,13052,-772,1535,1091
2017/07/11/16:02:46.459262,175069,1499760166,458986997,0,6082,-517,7760,13074,-761,1541,1080
2017/07/11/16:02:46.481497,175070,1499760166,481167078,0,6092,-460,7713,13100,-872,1329,1103
2017/07/11/16:02:46.503653,175071,1499760166,503422975,0,6104,-387,7688,13111,-769,1439,1150
2017/07/11/16:02:46.518846,175072,1499760166,518687009,0,6107,-321,7659,13128,-678,1542,1153
2017/07/11/16:02:46.541203,175073,1499760166,541045904,0,6114,-267,7619,13149,-743,1380,1188
2017/07/11/16:02:46.563900,175074,1499760166,563678979,0,6123,-203,7611,13151,-748,1408,1111
2017/07/11/16:02:46.578555,175075,1499760166,578460931,0,6118,-135,7605,13158,-648,1591,1077
2017/07/11/16:02:46.602661,175076,1499760166,602500915,0,6113,-85,7560,13186,-694,1408,1167
2017/07/11/16:02:46.623874,175077,1499760166,623636960,0,6123,-40,7531,13199,-824,1363,1192
2017/07/11/16:02:46.638824,175078,1499760166,638619899,0,6128,22,7524,13200,-681,1563,1160
2017/07/11/16:02:46.669629,175079,1499760166,669413089,0,6126,76,7502,13214,-653,1557,1116
2017/07/11/16:02:46.683934,175080,1499760166,683667898,0,6134,126,7461,13232,-700,1454,1177
2017/07/11/16:02:46.698560,175081,1499760166,698338985,0,6144,180,7438,13240,-684,1451,1196
2017/07/11/16:02:46.721088,175082,1499760166,720925092,0,6152,236,7416,13248,-646,1582,1194
2017/07/11/16:02:46.745741,175083,1499760166,745274066,0,6169,286,7361,13270,-599,1496,1243
2017/07/11/16:02:46.766042,175084,1499760166,765878915,0,6189,344,7317,13284,-619,1337,1251
2017/07/11/16:02:46.781188,175085,1499760166,781074047,0,6202,411,7307,13281,-535,1517,1120
2017/07/11/16:02:46.804045,175086,1499760166,803750038,0,6212,471,7278,13290,-521,1547,1156
2017/07/11/16:02:46.825977,175087,1499760166,825876951,0,6224,516,7241,13303,-530,1429,1174
2017/07/11/16:02:46.841558,175088,1499760166,841289997,0,6235,568,7218,13308,-491,1446,1186
2017/07/11/16:02:46.863766,175089,1499760166,863557100,0,6244,615,7196,13314,-508,1533,1222
2017/07/11/16:02:46.886486,175090,1499760166,886215925,0,6255,659,7167,13322,-499,1429,1198
2017/07/11/16:02:46.901524,175091,1499760166,901252031,0,6264,701,7145,13328,-494,1411,1157
2017/07/11/16:02:46.923851,175092,1499760166,923654079,0,6271,741,7128,13332,-491,1513,1186
2017/07/11/16:02:46.940329,175093,1499760166,938982009,0,6275,773,7104,13341,-452,1480,1254
2017/07/11/16:02:46.961452,175094,1499760166,961180925,0,6280,805,7092,13343,-465,1390,1214
2017/07/11/16:02:46.992379,175095,1499760166,992032051,0,6282,838,7088,13342,-436,1507,1183
2017/07/11/16:02:47.006780,175096,1499760167,6479024,0,6281,859,7069,13351,-463,1476,1249
2017/07/11/16:02:47.021367,175097,1499760167,21131038,0,6282,876,7057,13356,-548,1447,1270
2017/07/11/16:02:47.043579,175098,1499760167,43378114,0,6285,894,7054,13355,-455,1576,1260
2017/07/11/16:02:47.069053,175099,1499760167,68778991,0,6294,905,7024,13366,-468,1461,1316
2017/07/11/16:02:47.081687,175100,1499760167,81321001,0,6305,931,7012,13365,-486,1326,1259
2017/07/11/16:02:47.103554,175101,1499760167,103435993,0,6307,976,7038,13347,-432,1528,1176
2017/07/11/16:02:47.126810,175102,1499760167,126431941,0,6299,1002,7038,13349,-368,1642,1192
2017/07/11/16:02:47.140998,175103,1499760167,140901088,0,6300,996,7006,13366,-493,1413,1308
2017/07/11/16:02:47.163735,175104,1499760167,163539886,0,6311,1004,6995,13366,-512,1367,1285
2017/07/11/16:02:47.186599,175105,1499760167,186357021,0,6316,1037,7014,13351,-403,1575,1180
2017/07/11/16:02:47.202229,175106,1499760167,201653003,0,6315,1052,7017,13349,-395,1614,1157
2017/07/11/16:02:47.223611,175107,1499760167,223442077,0,6316,1047,6989,13363,-404,1391,1247
2017/07/11/16:02:47.248224,175108,1499760167,247994899,0,6325,1045,6988,13360,-457,1341,1245
2017/07/11/16:02:47.261309,175109,1499760167,261141061,0,6328,1057,7010,13346,-444,1576,1231
2017/07/11/16:02:47.283857,175110,1499760167,283453941,0,6333,1059,7009,13344,-434,1573,1268
2017/07/11/16:02:47.306822,175111,1499760167,306341886,0,6343,1057,6992,13348,-424,1396,1248
2017/07/11/16:02:47.321984,175112,1499760167,321455955,0,6354,1063,6991,13343,-423,1387,1235
2017/07/11/16:02:47.344231,175113,1499760167,343924999,0,6362,1077,7004,13331,-429,1507,1223
2017/07/11/16:02:47.366261,175114,1499760167,365989923,0,6372,1090,7005,13325,-410,1490,1229
2017/07/11/16:02:47.381278,175115,1499760167,380994081,0,6379,1100,7000,13323,-366,1447,1218
2017/07/11/16:02:47.404022,175116,1499760167,403722047,0,6382,1104,6997,13323,-396,1430,1200
2017/07/11/16:02:47.426062,175117,1499760167,425921916,0,6385,1105,6994,13323,-462,1397,1240
2017/07/11/16:02:47.441696,175118,1499760167,441258907,0,6387,1117,7005,13316,-451,1471,1226
2017/07/11/16:02:47.463964,175119,1499760167,463598966,0,6389,1129,7011,13310,-413,1526,1212
2017/07/11/16:02:47.486227,175120,1499760167,486037015,0,6390,1134,7003,13313,-404,1452,1253
2017/07/11/16:02:47.501300,175121,1499760167,501076936,0,6389,1138,7011,13309,-425,1462,1228
2017/07/11/16:02:47.523987,175122,1499760167,523839950,0,6388,1145,7021,13304,-425,1513,1190
2017/07/11/16:02:47.546779,175123,1499760167,546395063,0,6388,1145,7021,13304,-418,1483,1211
2017/07/11/16:02:47.561404,175124,1499760167,561258077,0,6391,1146,7020,13303,-414,1465,1236
2017/07/11/16:02:47.584513,175125,1499760167,584158897,0,6392,1148,7027,13299,-457,1435,1229
2017/07/11/16:02:47.606772,175126,1499760167,606204986,0,6393,1159,7038,13292,-415,1540,1231
2017/07/11/16:02:47.621106,175127,1499760167,620934009,0,6396,1162,7031,13293,-423,1467,1259
2017/07/11/16:02:47.644430,175128,1499760167,644143104,0,6401,1168,7021,13296,-402,1348,1232
2017/07/11/16:02:47.651394,175129,1499760167,651007890,0,6404,1182,7034,13286,-393,1478,1178
2017/07/11/16:02:47.674725,175130,1499760167,674527883,0,6403,1189,7034,13286,-379,1580,1183
2017/07/11/16:02:47.688593,175131,1499760167,688399076,0,6403,1183,7016,13296,-439,1406,1229
2017/07/11/16:02:47.711694,175132,1499760167,711389064,0,6407,1182,7016,13294,-453,1348,1236
2017/07/11/16:02:47.735672,175133,1499760167,734435081,0,6410,1198,7036,13281,-395,1515,1236
