time,.header.seq,.header.stamp.secs,.header.stamp.nsecs,.header.frame_id,.quat0,.quat1,.quat2,.quat3,.acc0,.acc1,.acc2
2017/07/11/15:53:13.188375,146453,1499759593,187699079,0,5158,5574,8828,11524,280,1893,409
2017/07/11/15:53:13.210580,146454,1499759593,210283041,0,5160,5570,8820,11531,252,1840,348
2017/07/11/15:53:13.225113,146455,1499759593,224886894,0,5144,5567,8814,11544,277,1911,397
2017/07/11/15:53:13.249431,146456,1499759593,249047040,0,5131,5570,8809,11552,310,1934,398
2017/07/11/15:53:13.270733,146457,1499759593,270247936,0,5125,5579,8809,11551,300,1934,348
2017/07/11/15:53:13.285058,146458,1499759593,284835100,0,5119,5579,8806,11555,291,1924,410
2017/07/11/15:53:13.309366,146459,1499759593,308877944,0,5102,5582,8807,11560,251,1936,357
2017/07/11/15:53:13.336218,146460,1499759593,335484027,0,5089,5598,8807,11559,282,2028,328
2017/07/11/15:53:13.345060,146461,1499759593,344892978,0,5083,5612,8801,11560,321,2071,308
2017/07/11/15:53:13.368952,146462,1499759593,368772029,0,5072,5623,8785,11571,285,1974,359
2017/07/11/15:53:13.390504,146463,1499759593,390127897,0,5043,5655,8791,11564,304,1870,363
2017/07/11/15:53:13.405371,146464,1499759593,405174970,0,5014,5694,8813,11540,359,2008,320
2017/07/11/15:53:13.427730,146465,1499759593,427571058,0,5014,5703,8812,11537,345,2013,409
2017/07/11/15:53:13.451420,146466,1499759593,451015949,0,5015,5701,8809,11539,317,1819,487
2017/07/11/15:53:13.466659,146467,1499759593,466327905,0,5025,5693,8808,11539,405,1842,495
2017/07/11/15:53:13.487963,146468,1499759593,487607002,0,5014,5692,8852,11511,391,1884,314
2017/07/11/15:53:13.514980,146469,1499759593,514811038,0,5009,5672,8905,11483,389,2089,389
2017/07/11/15:53:13.525244,146470,1499759593,525017023,0,5013,5629,8924,11487,386,2069,389
2017/07/11/15:53:13.547659,146471,1499759593,547451972,0,5021,5558,8947,11501,201,1924,397
2017/07/11/15:53:13.570570,146472,1499759593,570228099,0,5014,5485,8967,11522,335,2024,443
2017/07/11/15:53:13.585140,146473,1499759593,584873914,0,5055,5389,9043,11491,57,2132,208
2017/07/11/15:53:13.608356,146474,1499759593,608032941,0,5060,5312,9080,11495,293,2070,461
2017/07/11/15:53:13.630193,146475,1499759593,630033016,0,5086,5218,9145,11475,139,2073,389
2017/07/11/15:53:13.646288,146476,1499759593,646166086,0,5103,5110,9207,11467,154,2151,388
2017/07/11/15:53:13.668996,146477,1499759593,668826103,0,5138,4985,9269,11456,-7,2067,354
2017/07/11/15:53:13.690794,146478,1499759593,690610885,0,5179,4862,9334,11438,59,1980,386
2017/07/11/15:53:13.706514,146479,1499759593,704958915,0,5212,4743,9413,11408,37,1903,420
2017/07/11/15:53:13.727564,146480,1499759593,727368116,0,5250,4623,9499,11369,-47,2021,334
2017/07/11/15:53:13.750527,146481,1499759593,750256061,0,5286,4500,9576,11336,-46,2031,372
2017/07/11/15:53:13.766645,146482,1499759593,766429901,0,5319,4381,9644,11310,-55,1972,322
2017/07/11/15:53:13.788437,146483,1499759593,787933111,0,5361,4254,9717,11276,-125,1965,338
2017/07/11/15:53:13.819829,146484,1499759593,818775892,0,5410,4132,9789,11235,-142,1899,321
2017/07/11/15:53:13.825624,146485,1499759593,825175046,0,5452,4019,9867,11188,-111,1974,317
2017/07/11/15:53:13.847944,146486,1499759593,847635030,0,5484,3901,9935,11154,-149,2028,318
2017/07/11/15:53:13.870893,146487,1499759593,870769977,0,5523,3772,9992,11128,-249,2006,306
2017/07/11/15:53:13.892414,146488,1499759593,892307996,0,5570,3647,10044,11099,-299,1905,323
2017/07/11/15:53:13.907893,146489,1499759593,907763004,0,5622,3526,10101,11061,-277,1911,356
2017/07/11/15:53:13.930177,146490,1499759593,930036067,0,5676,3399,10141,11035,-282,1962,328
2017/07/11/15:53:13.952668,146491,1499759593,952440023,0,5731,3269,10179,11012,-358,1930,309
2017/07/11/15:53:13.967898,146492,1499759593,967552900,0,5801,3125,10216,10983,-427,1917,310
2017/07/11/15:53:13.990216,146493,1499759593,989957094,0,5877,2986,10244,10955,-488,1971,305
2017/07/11/15:53:14.013051,146494,1499759594,12744903,0,5953,2847,10262,10934,-500,1924,296
2017/07/11/15:53:14.027609,146495,1499759594,27364969,0,6023,2710,10275,10918,-507,1839,368
2017/07/11/15:53:14.050334,146496,1499759594,50112962,0,6098,2574,10300,10885,-594,1829,304
2017/07/11/15:53:14.072569,146497,1499759594,72371006,0,6188,2442,10338,10829,-683,1924,267
2017/07/11/15:53:14.087347,146498,1499759594,87248086,0,6281,2317,10358,10783,-622,1948,318
2017/07/11/15:53:14.112571,146499,1499759594,112241029,0,6369,2188,10357,10761,-623,1885,395
2017/07/11/15:53:14.133087,146500,1499759594,132656097,0,6462,2050,10355,10734,-745,1839,330
2017/07/11/15:53:14.148049,146501,1499759594,147845029,0,6578,1912,10348,10696,-809,1834,298
2017/07/11/15:53:14.170552,146502,1499759594,170103073,0,6694,1789,10339,10654,-738,1837,385
2017/07/11/15:53:14.193361,146503,1499759594,192871093,0,6793,1669,10316,10632,-683,1858,431
2017/07/11/15:53:14.208009,146504,1499759594,207776069,0,6888,1533,10283,10624,-767,1821,385
2017/07/11/15:53:14.230143,146505,1499759594,229954957,0,6998,1388,10244,10610,-953,1753,338
2017/07/11/15:53:14.253292,146506,1499759594,252891063,0,7122,1260,10205,10581,-952,1665,406
2017/07/11/15:53:14.275106,146507,1499759594,274985074,0,7237,1152,10156,10562,-823,1695,488
2017/07/11/15:53:14.299619,146508,1499759594,298320055,0,7336,1048,10096,10563,-835,1762,506
2017/07/11/15:53:14.313083,146509,1499759594,312643051,0,7428,937,10028,10573,-972,1711,428
2017/07/11/15:53:14.327579,146510,1499759594,327455997,0,7541,830,9955,10571,-1092,1620,415
2017/07/11/15:53:14.359046,146511,1499759594,358067035,0,7662,759,9889,10552,-1001,1506,541
2017/07/11/15:53:14.373268,146512,1499759594,372893095,0,7752,719,9838,10536,-849,1624,578
2017/07/11/15:53:14.387902,146513,1499759594,387423038,0,7831,650,9758,10556,-968,1884,592
2017/07/11/15:53:14.412621,146514,1499759594,412471055,0,7924,543,9633,10608,-1162,1634,490
2017/07/11/15:53:14.432886,146515,1499759594,432600975,0,8038,463,9503,10642,-1089,1363,652
2017/07/11/15:53:14.448091,146516,1499759594,447696924,0,8138,421,9422,10641,-907,1365,708
2017/07/11/15:53:14.455083,146517,1499759594,454871892,0,8211,395,9356,10643,-994,1640,728
2017/07/11/15:53:14.478824,146518,1499759594,478557109,0,8284,345,9263,10670,-1093,1675,602
2017/07/11/15:53:14.501809,146519,1499759594,500861883,0,8371,287,9128,10721,-1153,1423,669
2017/07/11/15:53:14.523094,146520,1499759594,522984981,0,8460,259,9011,10750,-995,1317,757
2017/07/11/15:53:14.537699,146521,1499759594,537457942,0,8534,241,8909,10777,-935,1438,843
2017/07/11/15:53:14.561230,146522,1499759594,560950040,0,8606,218,8802,10808,-1031,1414,713
2017/07/11/15:53:14.575152,146523,1499759594,574920892,0,8699,207,8688,10827,-1148,1265,785
2017/07/11/15:53:14.606186,146524,1499759594,605598926,0,8784,243,8608,10821,-1040,1304,792
2017/07/11/15:53:14.620646,146525,1499759594,620508909,0,8843,278,8523,10839,-861,1536,895
2017/07/11/15:53:14.635078,146526,1499759594,634880065,0,8914,259,8389,10886,-989,1424,868
2017/07/11/15:53:14.669568,146527,1499759594,668425083,0,9013,239,8233,10924,-1136,1071,937
2017/07/11/15:53:14.681086,146528,1499759594,680715084,0,9109,289,8131,10919,-1119,1140,932
2017/07/11/15:53:14.703631,146529,1499759594,703336000,0,9171,365,8054,10923,-840,1583,969
2017/07/11/15:53:14.717751,146530,1499759594,717474937,0,9223,385,7916,10979,-830,1553,980
2017/07/11/15:53:14.741729,146531,1499759594,740869045,0,9313,355,7718,11045,-987,1021,1063
2017/07/11/15:53:14.758759,146532,1499759594,758528947,0,9410,399,7578,11058,-1095,980,1153
2017/07/11/15:53:14.777554,146533,1499759594,777354001,0,9477,480,7487,11059,-779,1565,1178
2017/07/11/15:53:14.801801,146534,1499759594,800849914,0,9530,485,7328,11120,-746,1557,1113
2017/07/11/15:53:14.815212,146535,1499759594,815038919,0,9621,451,7106,11187,-955,779,1181
2017/07/11/15:53:14.838228,146536,1499759594,837824106,0,9715,527,6978,11183,-995,775,1321
2017/07/11/15:53:14.863100,146537,1499759594,862606048,0,9769,685,6945,11148,-781,1408,1237
2017/07/11/15:53:14.875422,146538,1499759594,875164985,0,9799,795,6863,11164,-699,1479,1218
2017/07/11/15:53:14.897954,146539,1499759594,897573947,0,9847,850,6721,11205,-859,1086,1321
2017/07/11/15:53:14.928605,146540,1499759594,928467035,0,9898,923,6606,11223,-961,1071,1390
2017/07/11/15:53:14.935186,146541,1499759594,934976100,0,9940,1009,6511,11233,-717,1365,1392
2017/07/11/15:53:14.958709,146542,1499759594,958395004,0,9983,1058,6402,11253,-672,1244,1422
2017/07/11/15:53:14.985829,146543,1499759594,985565900,0,10039,1096,6288,11265,-860,1045,1413
2017/07/11/15:53:14.995934,146544,1499759594,995543003,0,10090,1167,6195,11263,-779,1313,1542
2017/07/11/15:53:15.017506,146545,1499759595,17375946,0,10134,1222,6102,11269,-671,1407,1444
2017/07/11/15:53:15.043395,146546,1499759595,40821075,0,10183,1244,5988,11283,-657,1177,1428
2017/07/11/15:53:15.063443,146547,1499759595,63261032,0,10240,1279,5876,11286,-722,1028,1550
2017/07/11/15:53:15.077827,146548,1499759595,77507972,0,10289,1355,5799,11273,-683,1181,1530
2017/07/11/15:53:15.101084,146549,1499759595,100847005,0,10332,1429,5718,11266,-498,1361,1446
2017/07/11/15:53:15.123249,146550,1499759595,123048067,0,10374,1451,5606,11280,-489,1135,1472
2017/07/11/15:53:15.138283,146551,1499759595,137454032,0,10417,1479,5519,11281,-726,901,1593
2017/07/11/15:53:15.161575,146552,1499759595,161231040,0,10451,1562,5480,11256,-619,1166,1476
2017/07/11/15:53:15.183296,146553,1499759595,183027029,0,10491,1613,5408,11247,-381,1408,1443
2017/07/11/15:53:15.197780,146554,1499759595,197547912,0,10542,1600,5286,11259,-484,971,1579
2017/07/11/15:53:15.220785,146555,1499759595,220504999,0,10583,1639,5228,11242,-749,737,1564
2017/07/11/15:53:15.243512,146556,1499759595,243284940,0,10603,1775,5237,11198,-488,1221,1411
2017/07/11/15:53:15.259452,146557,1499759595,259222030,0,10622,1857,5194,11187,-295,1514,1480
2017/07/11/15:53:15.280678,146558,1499759595,280471086,0,10659,1839,5079,11208,-465,890,1671
2017/07/11/15:53:15.303264,146559,1499759595,303072929,0,10694,1874,5028,11191,-641,781,1635
2017/07/11/15:53:15.317486,146560,1499759595,317348003,0,10720,1971,5015,11156,-407,1430,1559
2017/07/11/15:53:15.340075,146561,1499759595,339853048,0,10745,2013,4939,11158,-319,1315,1482
2017/07/11/15:53:15.363652,146562,1499759595,363075017,0,10776,2010,4836,11174,-367,826,1601
2017/07/11/15:53:15.377630,146563,1499759595,377466917,0,10800,2055,4800,11159,-431,836,1612
2017/07/11/15:53:15.400296,146564,1499759595,400027990,0,10814,2126,4802,11130,-394,1255,1592
2017/07/11/15:53:15.423288,146565,1499759595,423029899,0,10826,2183,4779,11117,-334,1238,1457
2017/07/11/15:53:15.438185,146566,1499759595,437920093,0,10842,2210,4728,11119,-241,1066,1503
2017/07/11/15:53:15.460352,146567,1499759595,460172891,0,10854,2219,4692,11120,-357,877,1611
2017/07/11/15:53:15.484227,146568,1499759595,483619928,0,10857,2255,4703,11106,-380,1034,1531
2017/07/11/15:53:15.497574,146569,1499759595,497353076,0,10861,2282,4717,11090,-348,1353,1522
2017/07/11/15:53:15.521048,146570,1499759595,520514011,0,10869,2273,4684,11098,-356,1134,1599
2017/07/11/15:53:15.543323,146571,1499759595,543145895,0,10874,2268,4666,11102,-398,932,1605
2017/07/11/15:53:15.557437,146572,1499759595,557329893,0,10875,2282,4681,11092,-315,1165,1519
2017/07/11/15:53:15.582108,146573,1499759595,580889940,0,10880,2278,4685,11086,-378,1207,1570
2017/07/11/15:53:15.603177,146574,1499759595,602994918,0,10880,2276,4685,11086,-428,1070,1619
2017/07/11/15:53:15.617497,146575,1499759595,617341995,0,10882,2282,4687,11082,-390,1096,1598
2017/07/11/15:53:15.640140,146576,1499759595,639895915,0,10884,2287,4693,11077,-342,1132,1567
2017/07/11/15:53:15.663361,146577,1499759595,663165092,0,10887,2284,4696,11073,-389,1146,1587
2017/07/11/15:53:15.677893,146578,1499759595,677617073,0,10890,2290,4704,11066,-370,1107,1570
2017/07/11/15:53:15.709362,146579,1499759595,708461999,0,10889,2298,4712,11061,-302,1190,1495
2017/07/11/15:53:15.723900,146580,1499759595,723223924,0,10891,2275,4705,11067,-358,1027,1583
2017/07/11/15:53:15.737642,146581,1499759595,737377882,0,10893,2260,4711,11065,-427,1015,1648
2017/07/11/15:53:15.760343,146582,1499759595,760051965,0,10894,2272,4733,11053,-419,1101,1573
2017/07/11/15:53:15.783386,146583,1499759595,783086061,0,10891,2289,4746,11046,-339,1252,1536
2017/07/11/15:53:15.797584,146584,1499759595,797393083,0,10888,2278,4745,11052,-388,1079,1553
2017/07/11/15:53:15.820215,146585,1499759595,820045948,0,10886,2266,4758,11052,-431,1027,1616
2017/07/11/15:53:15.850924,146586,1499759595,850692987,0,10885,2268,4776,11044,-362,1139,1597
2017/07/11/15:53:15.857614,146587,1499759595,857419013,0,10881,2266,4800,11038,-436,1157,1557
2017/07/11/15:53:15.880024,146588,1499759595,879906892,0,10877,2268,4818,11033,-420,1154,1525
2017/07/11/15:53:15.903271,146589,1499759595,903016090,0,10876,2270,4823,11032,-418,1139,1543
2017/07/11/15:53:15.917618,146590,1499759595,917351961,0,10876,2270,4823,11032,-388,1131,1534
2017/07/11/15:53:15.940225,146591,1499759595,939979076,0,10874,2261,4830,11032,-423,1127,1521
2017/07/11/15:53:15.963543,146592,1499759595,963257074,0,10874,2265,4842,11027,-405,1099,1508
2017/07/11/15:53:15.977751,146593,1499759595,977613925,0,10872,2282,4855,11019,-371,1154,1535
2017/07/11/15:53:16.000240,146594,1499759595,999939918,0,10868,2302,4867,11014,-412,1094,1557
2017/07/11/15:53:16.024149,146595,1499759596,23148059,0,10863,2330,4886,11004,-412,1221,1511
2017/07/11/15:53:16.037556,146596,1499759596,37368059,0,10866,2330,4882,11003,-371,1273,1514
2017/07/11/15:53:16.060146,146597,1499759596,59789896,0,10874,2310,4860,11009,-404,1091,1539
