time,.header.seq,.header.stamp.secs,.header.stamp.nsecs,.header.frame_id,.ch0,.ch1,.ch2,.ch3,.ch4,.ch5,.ch6,.ch7
2017/07/11/15:55:49.151443,155490,1499759749,151079893,0,349,72,39,179,168,44,50,152
2017/07/11/15:55:49.172839,155491,1499759749,172544956,0,356,66,39,133,162,30,51,161
2017/07/11/15:55:49.197584,155492,1499759749,197164058,0,340,59,36,130,158,28,51,160
2017/07/11/15:55:49.211113,155493,1499759749,210741043,0,354,59,37,125,155,27,35,129
2017/07/11/15:55:49.232962,155494,1499759749,232799053,0,353,59,36,130,166,27,39,101
2017/07/11/15:55:49.256924,155495,1499759749,256294012,0,292,56,35,110,141,25,37,91
2017/07/11/15:55:49.272481,155496,1499759749,272211074,0,301,90,35,75,107,24,40,70
2017/07/11/15:55:49.293273,155497,1499759749,292850017,0,312,87,31,69,99,22,37,60
2017/07/11/15:55:49.308216,155498,1499759749,307912111,0,293,97,32,65,96,22,38,58
2017/07/11/15:55:49.330308,155499,1499759749,330127954,0,290,142,53,47,66,23,35,57
2017/07/11/15:55:49.353199,155500,1499759749,352925062,0,340,149,59,37,58,22,35,60
2017/07/11/15:55:49.368970,155501,1499759749,368846893,0,287,131,57,34,59,23,29,70
2017/07/11/15:55:49.390250,155502,1499759749,390091896,0,261,133,59,38,63,24,29,74
2017/07/11/15:55:49.413116,155503,1499759749,412827014,0,266,131,70,36,63,23,28,74
2017/07/11/15:55:49.435696,155504,1499759749,435542106,0,252,106,60,42,69,23,30,73
2017/07/11/15:55:49.450772,155505,1499759749,450504064,0,179,172,72,42,54,25,31,70
2017/07/11/15:55:49.472862,155506,1499759749,472685098,0,279,188,81,43,50,24,31,70
2017/07/11/15:55:49.487623,155507,1499759749,487509012,0,316,194,84,43,45,26,35,81
2017/07/11/15:55:49.510918,155508,1499759749,510534048,0,311,191,79,44,44,30,34,81
2017/07/11/15:55:49.532830,155509,1499759749,532536983,0,355,204,88,40,32,30,33,88
2017/07/11/15:55:49.547635,155510,1499759749,547485113,0,431,190,81,41,31,33,37,95
2017/07/11/15:55:49.570411,155511,1499759749,570179939,0,452,197,74,40,30,33,43,114
2017/07/11/15:55:49.592752,155512,1499759749,592603921,0,445,203,78,43,30,36,40,106
2017/07/11/15:55:49.608040,155513,1499759749,607812881,0,463,257,88,43,31,38,42,105
2017/07/11/15:55:49.630917,155514,1499759749,630496978,0,474,274,84,38,32,41,42,101
2017/07/11/15:55:49.653104,155515,1499759749,652796030,0,415,250,82,37,34,47,43,93
2017/07/11/15:55:49.667604,155516,1499759749,667509078,0,417,249,83,39,41,52,41,68
2017/07/11/15:55:49.690564,155517,1499759749,690340042,0,429,258,85,33,43,52,43,74
2017/07/11/15:55:49.721030,155518,1499759749,720793008,0,473,268,93,45,86,51,45,85
2017/07/11/15:55:49.728161,155519,1499759749,728017091,0,477,268,99,51,100,50,45,84
2017/07/11/15:55:49.759100,155520,1499759749,758480072,0,574,365,134,55,126,50,42,91
2017/07/11/15:55:49.773083,155521,1499759749,772679090,0,605,372,141,67,136,47,38,99
2017/07/11/15:55:49.787681,155522,1499759749,787559032,0,627,372,140,71,181,51,52,120
2017/07/11/15:55:49.810699,155523,1499759749,810535907,0,629,379,139,69,198,51,49,115
2017/07/11/15:55:49.833358,155524,1499759749,832904100,0,610,403,176,91,209,58,51,118
2017/07/11/15:55:49.847961,155525,1499759749,847553968,0,564,320,155,91,198,56,51,118
2017/07/11/15:55:49.894819,155526,1499759749,894402980,0,593,307,150,85,192,57,53,119
2017/07/11/15:55:49.895955,155527,1499759749,895823955,0,566,324,156,96,155,59,40,96
2017/07/11/15:55:49.907514,155528,1499759749,907432079,0,609,303,150,97,149,59,41,103
2017/07/11/15:55:49.930918,155529,1499759749,930469989,0,631,238,108,74,129,54,38,101
2017/07/11/15:55:49.953134,155530,1499759749,952819108,0,624,315,119,82,129,53,38,97
2017/07/11/15:55:49.991645,155531,1499759749,991465091,0,533,336,120,93,163,68,40,93
2017/07/11/15:55:49.993423,155532,1499759749,993242025,0,530,330,124,90,164,68,43,105
2017/07/11/15:55:50.013147,155533,1499759750,12954950,0,575,346,119,94,130,70,50,126
2017/07/11/15:55:50.029613,155534,1499759750,29278993,0,571,355,132,104,131,80,55,132
2017/07/11/15:55:50.050704,155535,1499759750,50421953,0,608,291,123,100,151,78,55,144
2017/07/11/15:55:50.073582,155536,1499759750,73133945,0,616,269,126,91,170,65,53,140
2017/07/11/15:55:50.104389,155537,1499759750,103537082,0,684,256,126,82,170,60,50,139
2017/07/11/15:55:50.110591,155538,1499759750,110296964,0,581,210,134,72,171,57,49,135
2017/07/11/15:55:50.133497,155539,1499759750,133038997,0,587,220,112,71,188,46,48,138
2017/07/11/15:55:50.155427,155540,1499759750,155159950,0,532,264,120,72,174,51,52,145
2017/07/11/15:55:50.170302,155541,1499759750,170114994,0,540,307,121,65,120,54,54,162
2017/07/11/15:55:50.193498,155542,1499759750,193084955,0,514,313,128,71,116,56,56,163
2017/07/11/15:55:50.215084,155543,1499759750,214992046,0,574,306,122,71,115,55,61,177
2017/07/11/15:55:50.230374,155544,1499759750,230107069,0,628,325,127,69,119,70,86,206
2017/07/11/15:55:50.253062,155545,1499759750,252667903,0,614,302,120,75,128,69,93,201
2017/07/11/15:55:50.275399,155546,1499759750,275160074,0,604,284,122,80,125,71,94,196
2017/07/11/15:55:50.290485,155547,1499759750,290237903,0,668,278,112,74,128,76,99,202
2017/07/11/15:55:50.312727,155548,1499759750,312597036,0,674,281,122,87,152,97,102,236
2017/07/11/15:55:50.335401,155549,1499759750,335083007,0,638,252,117,85,126,85,86,230
2017/07/11/15:55:50.350853,155550,1499759750,350501060,0,651,230,109,87,132,85,80,238
2017/07/11/15:55:50.381538,155551,1499759750,381292104,0,690,221,107,84,136,84,85,262
2017/07/11/15:55:50.403602,155552,1499759750,403393030,0,623,216,100,82,139,82,87,278
2017/07/11/15:55:50.410344,155553,1499759750,410084962,0,576,233,101,71,139,54,82,246
2017/07/11/15:55:50.432981,155554,1499759750,432743072,0,559,226,99,76,136,71,90,243
2017/07/11/15:55:50.455426,155555,1499759750,455189943,0,606,232,102,64,119,101,93,240
2017/07/11/15:55:50.478015,155556,1499759750,477756977,0,617,211,92,66,113,102,93,229
2017/07/11/15:55:50.493208,155557,1499759750,492963075,0,608,218,94,78,134,102,89,211
2017/07/11/15:55:50.515177,155558,1499759750,515055894,0,655,183,80,79,117,111,95,214
2017/07/11/15:55:50.532326,155559,1499759750,532121896,0,675,197,84,69,201,114,90,223
2017/07/11/15:55:50.553348,155560,1499759750,553067922,0,660,195,80,77,243,102,93,219
2017/07/11/15:55:50.575433,155561,1499759750,575234889,0,620,195,85,75,248,101,92,213
2017/07/11/15:55:50.590968,155562,1499759750,590343952,0,675,217,94,72,244,123,98,256
2017/07/11/15:55:50.612991,155563,1499759750,612740039,0,631,217,90,86,250,118,91,308
2017/07/11/15:55:50.643439,155564,1499759750,643234968,0,614,197,86,88,190,184,88,296
2017/07/11/15:55:50.661946,155565,1499759750,661478042,0,679,209,87,90,246,180,88,331
2017/07/11/15:55:50.673096,155566,1499759750,672755002,0,670,212,90,111,263,184,90,361
2017/07/11/15:55:50.695538,155567,1499759750,695349931,0,671,188,77,112,269,191,105,347
2017/07/11/15:55:50.710209,155568,1499759750,710055112,0,677,187,80,104,294,208,127,313
2017/07/11/15:55:50.733283,155569,1499759750,733063936,0,687,199,88,104,303,165,134,317
2017/07/11/15:55:50.755708,155570,1499759750,755436897,0,649,185,92,103,232,162,133,334
2017/07/11/15:55:50.772943,155571,1499759750,772805929,0,654,164,86,86,209,157,132,310
2017/07/11/15:55:50.793329,155572,1499759750,792913913,0,637,170,101,92,217,134,124,350
2017/07/11/15:55:50.815423,155573,1499759750,815277099,0,645,176,101,86,181,121,117,381
2017/07/11/15:55:50.830120,155574,1499759750,830019950,0,658,174,97,85,176,127,109,386
2017/07/11/15:55:50.853183,155575,1499759750,852890968,0,592,166,100,81,226,141,108,353
2017/07/11/15:55:50.875957,155576,1499759750,875562906,0,656,182,107,96,267,145,106,374
2017/07/11/15:55:50.890838,155577,1499759750,890336036,0,592,184,118,97,256,147,103,373
2017/07/11/15:55:50.912757,155578,1499759750,912542104,0,626,201,126,104,264,145,127,368
2017/07/11/15:55:50.935615,155579,1499759750,935400009,0,621,194,131,113,292,168,144,383
2017/07/11/15:55:50.950225,155580,1499759750,950022935,0,642,197,127,123,272,172,147,423
2017/07/11/15:55:50.973311,155581,1499759750,973025083,0,589,193,120,118,254,184,147,455
2017/07/11/15:55:50.996006,155582,1499759750,995670080,0,636,273,114,112,250,191,150,469
2017/07/11/15:55:51.010210,155583,1499759751,10066986,0,573,268,118,112,243,189,125,444
2017/07/11/15:55:51.032932,155584,1499759751,32545089,0,600,294,124,113,221,168,116,471
2017/07/11/15:55:51.055827,155585,1499759751,55506944,0,597,303,129,125,247,159,112,445
2017/07/11/15:55:51.087066,155586,1499759751,86383104,0,581,420,168,124,236,146,114,411
2017/07/11/15:55:51.093516,155587,1499759751,93198060,0,632,399,158,124,244,143,104,386
2017/07/11/15:55:51.115535,155588,1499759751,115297079,0,676,396,160,130,251,152,97,430
2017/07/11/15:55:51.137801,155589,1499759751,137558937,0,683,386,156,124,261,128,87,432
2017/07/11/15:55:51.154583,155590,1499759751,154207944,0,760,414,156,107,220,129,97,474
2017/07/11/15:55:51.176088,155591,1499759751,175384998,0,864,302,124,108,236,124,97,534
2017/07/11/15:55:51.198353,155592,1499759751,197915077,0,803,255,127,117,254,139,96,527
2017/07/11/15:55:51.212906,155593,1499759751,212644100,0,849,331,126,116,266,126,103,516
2017/07/11/15:55:51.235636,155594,1499759751,235338926,0,864,340,155,123,242,125,106,501
2017/07/11/15:55:51.257867,155595,1499759751,257550001,0,848,304,153,117,232,114,99,461
2017/07/11/15:55:51.272883,155596,1499759751,272736072,0,742,293,148,128,248,128,107,386
2017/07/11/15:55:51.295760,155597,1499759751,295465946,0,802,300,147,123,232,110,108,401
2017/07/11/15:55:51.317776,155598,1499759751,317603111,0,911,309,160,124,215,109,110,444
2017/07/11/15:55:51.333082,155599,1499759751,332807064,0,885,328,131,118,214,114,106,452
2017/07/11/15:55:51.355848,155600,1499759751,355551004,0,842,335,132,118,223,117,105,463
2017/07/11/15:55:51.378294,155601,1499759751,377928972,0,867,338,133,94,189,105,102,460
2017/07/11/15:55:51.393228,155602,1499759751,392628908,0,825,337,132,88,172,98,106,444
2017/07/11/15:55:51.415224,155603,1499759751,415055990,0,717,281,108,87,173,92,96,399
2017/07/11/15:55:51.438198,155604,1499759751,437868118,0,665,253,112,103,209,90,89,369
2017/07/11/15:55:51.453037,155605,1499759751,452864885,0,709,253,106,103,224,93,88,359
2017/07/11/15:55:51.476077,155606,1499759751,475605010,0,705,246,104,112,241,89,76,350
2017/07/11/15:55:51.498375,155607,1499759751,497946023,0,720,247,105,115,247,84,77,395
2017/07/11/15:55:51.512617,155608,1499759751,512489080,0,640,216,107,135,282,90,79,387
2017/07/11/15:55:51.535908,155609,1499759751,535612106,0,691,199,105,152,282,88,80,371
2017/07/11/15:55:51.557899,155610,1499759751,557653903,0,691,184,109,156,263,80,77,364
2017/07/11/15:55:51.572800,155611,1499759751,572621107,0,657,192,121,151,235,76,76,350
2017/07/11/15:55:51.595623,155612,1499759751,595453023,0,633,181,113,151,235,78,71,278
2017/07/11/15:55:51.617964,155613,1499759751,617835998,0,602,173,105,128,212,66,64,252
2017/07/11/15:55:51.632654,155614,1499759751,632486104,0,526,160,99,114,239,67,63,256
2017/07/11/15:55:51.656097,155615,1499759751,655589103,0,518,158,99,148,298,77,66,241
2017/07/11/15:55:51.678032,155616,1499759751,677819013,0,560,174,92,158,305,85,72,242
2017/07/11/15:55:51.693097,155617,1499759751,692862033,0,512,181,104,160,299,79,70,246
2017/07/11/15:55:51.715275,155618,1499759751,715082883,0,527,172,99,159,275,82,73,239
2017/07/11/15:55:51.738391,155619,1499759751,738111019,0,611,200,107,147,220,73,78,284
2017/07/11/15:55:51.753074,155620,1499759751,752835035,0,569,204,115,146,202,69,75,287
2017/07/11/15:55:51.775392,155621,1499759751,775190114,0,598,202,107,135,195,63,74,304
2017/07/11/15:55:51.797984,155622,1499759751,797854900,0,615,200,109,135,198,70,77,300
2017/07/11/15:55:51.813041,155623,1499759751,812755107,0,620,212,118,134,193,68,73,290
2017/07/11/15:55:51.835274,155624,1499759751,835154056,0,581,197,111,128,196,71,67,272
2017/07/11/15:55:51.862326,155625,1499759751,862112998,0,609,186,102,83,147,68,66,304
2017/07/11/15:55:51.873328,155626,1499759751,873001098,0,603,194,110,89,150,64,64,305
2017/07/11/15:55:51.895780,155627,1499759751,895363092,0,606,179,98,82,151,61,59,293
2017/07/11/15:55:51.917887,155628,1499759751,917762041,0,605,201,103,97,184,58,62,307
2017/07/11/15:55:51.932923,155629,1499759751,932715892,0,582,199,99,95,174,59,61,288
2017/07/11/15:55:51.955421,155630,1499759751,955235004,0,577,214,97,93,169,56,64,294
2017/07/11/15:55:51.978075,155631,1499759751,977803945,0,553,202,86,91,168,54,62,276
2017/07/11/15:55:52.001096,155632,1499759752,565052,0,542,207,86,96,183,58,65,292
2017/07/11/15:55:52.015255,155633,1499759752,15050888,0,503,211,91,77,155,61,63,284
