time,.header.seq,.header.stamp.secs,.header.stamp.nsecs,.header.frame_id,.quat0,.quat1,.quat2,.quat3,.acc0,.acc1,.acc2
2017/07/11/15:42:58.786712,115792,1499758978,786436080,0,2390,3585,10448,11861,260,1924,131
2017/07/11/15:42:58.801772,115793,1499758978,801520109,0,2373,3586,10406,11901,259,2066,205
2017/07/11/15:42:58.823733,115794,1499758978,823601007,0,2357,3599,10363,11938,264,2099,208
2017/07/11/15:42:58.846879,115795,1499758978,846667051,0,2342,3631,10321,11968,257,1919,199
2017/07/11/15:42:58.861924,115796,1499758978,861594915,0,2326,3662,10290,11988,284,1862,134
2017/07/11/15:42:58.883991,115797,1499758978,883805990,0,2304,3667,10259,12017,283,2064,223
2017/07/11/15:42:58.906722,115798,1499758978,906490087,0,2278,3666,10221,12055,297,2009,372
2017/07/11/15:42:58.926293,115799,1499758978,923643112,0,2271,3685,10196,12071,241,1811,258
2017/07/11/15:42:58.944072,115800,1499758978,943844079,0,2270,3703,10208,12056,243,1863,209
2017/07/11/15:42:58.966560,115801,1499758978,966283082,0,2265,3703,10188,12074,359,2068,221
2017/07/11/15:42:58.981676,115802,1499758978,981384992,0,2240,3706,10107,12145,434,1967,309
2017/07/11/15:42:59.003888,115803,1499758979,3688097,0,2217,3712,10034,12208,423,1671,326
2017/07/11/15:42:59.026818,115804,1499758979,26588916,0,2206,3708,10029,12215,346,1630,351
2017/07/11/15:42:59.048959,115805,1499758979,48793077,0,2191,3700,10077,12181,298,2056,225
2017/07/11/15:42:59.064250,115806,1499758979,63975095,0,2177,3685,10092,12176,339,2264,259
2017/07/11/15:42:59.094487,115807,1499758979,94357013,0,2167,3668,10051,12216,394,1897,388
2017/07/11/15:42:59.101696,115808,1499758979,101505994,0,2151,3648,10032,12240,420,1699,408
2017/07/11/15:42:59.132162,115809,1499758979,132013082,0,2145,3605,10075,12219,323,2011,283
2017/07/11/15:42:59.154571,115810,1499758979,154452085,0,2164,3544,10105,12209,254,2227,359
2017/07/11/15:42:59.161302,115811,1499758979,161189079,0,2191,3478,10111,12218,299,1979,294
2017/07/11/15:42:59.193076,115812,1499758979,192229032,0,2231,3390,10111,12235,251,2045,305
2017/07/11/15:42:59.206760,115813,1499758979,206413984,0,2285,3270,10112,12257,178,2173,340
2017/07/11/15:42:59.221365,115814,1499758979,221190929,0,2330,3188,10161,12229,301,1969,280
2017/07/11/15:42:59.244277,115815,1499758979,244012117,0,2369,3086,10191,12224,195,2125,376
2017/07/11/15:42:59.266792,115816,1499758979,266491889,0,2430,2955,10235,12207,-40,2135,321
2017/07/11/15:42:59.281657,115817,1499758979,281466960,0,2499,2837,10271,12191,47,2135,284
2017/07/11/15:42:59.304602,115818,1499758979,304312944,0,2586,2708,10301,12177,24,2098,344
2017/07/11/15:42:59.326386,115819,1499758979,326211929,0,2656,2590,10338,12156,59,1891,389
2017/07/11/15:42:59.349231,115820,1499758979,348983049,0,2731,2468,10390,12120,-36,1963,289
2017/07/11/15:42:59.364174,115821,1499758979,363915920,0,2829,2332,10448,12075,-228,2116,225
2017/07/11/15:42:59.395625,115822,1499758979,394834995,0,2958,2201,10476,12045,-220,2122,252
2017/07/11/15:42:59.409330,115823,1499758979,408905982,0,3070,2071,10482,12034,-116,1945,429
2017/07/11/15:42:59.423881,115824,1499758979,423698902,0,3141,1969,10522,11998,-134,1701,337
2017/07/11/15:42:59.446671,115825,1499758979,446459054,0,3256,1837,10572,11944,-424,2055,222
2017/07/11/15:42:59.469019,115826,1499758979,468842029,0,3399,1718,10597,11900,-404,2100,229
2017/07/11/15:42:59.484197,115827,1499758979,483956098,0,3517,1614,10584,11891,-214,1906,365
2017/07/11/15:42:59.506312,115828,1499758979,506119012,0,3628,1508,10579,11877,-327,1789,370
2017/07/11/15:42:59.529037,115829,1499758979,528785943,0,3745,1393,10589,11846,-466,1891,333
2017/07/11/15:42:59.547364,115830,1499758979,547219991,0,3887,1279,10591,11810,-528,2011,302
2017/07/11/15:42:59.575565,115831,1499758979,574645042,0,4020,1186,10571,11794,-415,1917,392
2017/07/11/15:42:59.588850,115832,1499758979,588701009,0,4144,1096,10548,11780,-473,1833,397
2017/07/11/15:42:59.604237,115833,1499758979,603961944,0,4267,1003,10537,11754,-550,1885,347
2017/07/11/15:42:59.627050,115834,1499758979,626657962,0,4399,905,10540,11711,-741,2011,217
2017/07/11/15:42:59.651020,115835,1499758979,650388002,0,4554,819,10499,11695,-692,2010,382
2017/07/11/15:42:59.665739,115836,1499758979,665555953,0,4695,741,10442,11695,-549,1813,475
2017/07/11/15:42:59.686295,115837,1499758979,686131000,0,4822,663,10403,11683,-643,1776,420
2017/07/11/15:42:59.709501,115838,1499758979,709110975,0,4951,587,10382,11652,-790,1974,292
2017/07/11/15:42:59.732924,115839,1499758979,732630014,0,5091,520,10321,11648,-800,2046,371
2017/07/11/15:42:59.746692,115840,1499758979,746507883,0,5224,459,10235,11669,-694,1889,450
2017/07/11/15:42:59.769348,115841,1499758979,769118070,0,5346,400,10151,11689,-680,1700,544
2017/07/11/15:42:59.783763,115842,1499758979,783611059,0,5470,337,10105,11673,-828,1730,442
2017/07/11/15:42:59.806689,115843,1499758979,806442022,0,5611,287,10058,11648,-912,1957,438
2017/07/11/15:42:59.828897,115844,1499758979,828695058,0,5743,246,9967,11663,-652,1896,570
2017/07/11/15:42:59.844641,115845,1499758979,844273090,0,5854,188,9851,11707,-678,1709,583
2017/07/11/15:42:59.866271,115846,1499758979,866126060,0,5974,123,9754,11729,-879,1653,588
2017/07/11/15:42:59.889375,115847,1499758979,889075040,0,6099,73,9688,11719,-894,1619,587
2017/07/11/15:42:59.903999,115848,1499758979,903836011,0,6221,33,9620,11711,-757,1732,620
2017/07/11/15:42:59.928573,115849,1499758979,928314924,0,6321,4,9538,11725,-794,1702,647
2017/07/11/15:42:59.949411,115850,1499758979,949024915,0,6427,-36,9431,11754,-876,1679,695
2017/07/11/15:42:59.963693,115851,1499758979,963596105,0,6533,-79,9327,11778,-912,1606,663
2017/07/11/15:42:59.986468,115852,1499758979,986356973,0,6632,-112,9239,11792,-915,1565,661
2017/07/11/15:43:00.009201,115853,1499758980,9030103,0,6722,-128,9141,11817,-860,1636,771
2017/07/11/15:43:00.027923,115854,1499758980,27734994,0,6814,-142,9033,11848,-881,1489,804
2017/07/11/15:43:00.046309,115855,1499758980,46159029,0,6915,-149,8942,11858,-936,1438,787
2017/07/11/15:43:00.086555,115856,1499758980,85571050,0,7008,-144,8866,11860,-919,1624,748
2017/07/11/15:43:00.087564,115857,1499758980,87363958,0,7081,-141,8781,11881,-871,1667,756
2017/07/11/15:43:00.107272,115858,1499758980,106884002,0,7151,-150,8667,11922,-897,1567,761
2017/07/11/15:43:00.128726,115859,1499758980,128631114,0,7245,-164,8531,11963,-925,1363,910
2017/07/11/15:43:00.144256,115860,1499758980,144042015,0,7343,-154,8430,11975,-911,1308,965
2017/07/11/15:43:00.166821,115861,1499758980,166552066,0,7420,-121,8358,11978,-843,1559,872
2017/07/11/15:43:00.189295,115862,1499758980,188977003,0,7483,-109,8260,12007,-878,1684,795
2017/07/11/15:43:00.203940,115863,1499758980,203815937,0,7556,-115,8114,12061,-880,1338,907
2017/07/11/15:43:00.226378,115864,1499758980,226187944,0,7642,-96,7987,12092,-788,1166,1071
2017/07/11/15:43:00.249953,115865,1499758980,249571084,0,7720,-45,7922,12085,-841,1328,1104
2017/07/11/15:43:00.266132,115866,1499758980,265973091,0,7784,12,7878,12073,-855,1559,982
2017/07/11/15:43:00.286884,115867,1499758980,286690950,0,7848,44,7796,12085,-910,1551,965
2017/07/11/15:43:00.309294,115868,1499758980,308993101,0,7920,75,7674,12116,-843,1287,1066
2017/07/11/15:43:00.331605,115869,1499758980,331434965,0,7997,125,7578,12125,-710,1108,1193
2017/07/11/15:43:00.347057,115870,1499758980,346468925,0,8067,193,7534,12105,-800,1256,1162
2017/07/11/15:43:00.368928,115871,1499758980,368736982,0,8132,273,7509,12076,-913,1444,1066
2017/07/11/15:43:00.391205,115872,1499758980,391086101,0,8192,350,7440,12076,-737,1443,1030
2017/07/11/15:43:00.414427,115873,1499758980,414127111,0,8252,395,7325,12104,-610,1249,1170
2017/07/11/15:43:00.429431,115874,1499758980,429014921,0,8317,418,7224,12119,-717,1013,1299
2017/07/11/15:43:00.451666,115875,1499758980,451504945,0,8378,477,7185,12098,-828,1145,1152
2017/07/11/15:43:00.466890,115876,1499758980,466552972,0,8432,561,7143,12081,-671,1427,1111
2017/07/11/15:43:00.488945,115877,1499758980,488786935,0,8480,621,7071,12087,-602,1281,1201
2017/07/11/15:43:00.520289,115878,1499758980,519578933,0,8520,671,7015,12090,-709,1119,1253
2017/07/11/15:43:00.526758,115879,1499758980,526449918,0,8560,725,6979,12079,-710,1252,1240
2017/07/11/15:43:00.548877,115880,1499758980,548754930,0,8605,780,6928,12073,-678,1377,1278
2017/07/11/15:43:00.571805,115881,1499758980,571449995,0,8639,825,6860,12084,-629,1293,1284
2017/07/11/15:43:00.587019,115882,1499758980,586572885,0,8667,870,6816,12087,-656,1036,1341
2017/07/11/15:43:00.614005,115883,1499758980,613698959,0,8696,937,6811,12063,-683,1226,1316
2017/07/11/15:43:00.631329,115884,1499758980,631159067,0,8722,1011,6803,12043,-639,1450,1263
2017/07/11/15:43:00.646218,115885,1499758980,646110057,0,8749,1065,6764,12041,-694,1412,1239
2017/07/11/15:43:00.669170,115886,1499758980,668889045,0,8771,1107,6701,12056,-566,1261,1275
2017/07/11/15:43:00.691730,115887,1499758980,691303014,0,8786,1138,6670,12059,-593,1137,1390
2017/07/11/15:43:00.706778,115888,1499758980,706468105,0,8803,1183,6671,12042,-699,1282,1345
2017/07/11/15:43:00.728825,115889,1499758980,728720903,0,8821,1244,6656,12031,-612,1471,1214
2017/07/11/15:43:00.751659,115890,1499758980,751398086,0,8843,1280,6606,12039,-618,1498,1282
2017/07/11/15:43:00.766376,115891,1499758980,766201972,0,8864,1297,6550,12052,-645,1160,1447
2017/07/11/15:43:00.789378,115892,1499758980,789144039,0,8883,1343,6539,12039,-641,1184,1459
2017/07/11/15:43:00.819418,115893,1499758980,819317102,0,8897,1412,6548,12016,-527,1465,1239
2017/07/11/15:43:00.827033,115894,1499758980,826797008,0,8911,1448,6512,12021,-470,1537,1239
2017/07/11/15:43:00.851617,115895,1499758980,851160049,0,8933,1438,6451,12038,-638,1197,1344
2017/07/11/15:43:00.871791,115896,1499758980,871475934,0,8956,1463,6434,12028,-659,1157,1426
2017/07/11/15:43:00.886844,115897,1499758980,886368989,0,8972,1530,6462,11992,-582,1404,1372
2017/07/11/15:43:00.908870,115898,1499758980,908726930,0,8976,1593,6488,11967,-476,1556,1222
2017/07/11/15:43:00.932109,115899,1499758980,931610107,0,8982,1612,6464,11972,-497,1361,1328
2017/07/11/15:43:00.946414,115900,1499758980,946263074,0,8999,1614,6438,11973,-635,1174,1404
2017/07/11/15:43:00.969707,115901,1499758980,969463109,0,9024,1649,6444,11947,-692,1322,1365
2017/07/11/15:43:00.999507,115902,1499758980,999346017,0,9039,1717,6463,11916,-513,1457,1316
2017/07/11/15:43:01.007030,115903,1499758981,6540060,0,9047,1764,6466,11901,-459,1439,1335
2017/07/11/15:43:01.028955,115904,1499758981,28734922,0,9060,1783,6447,11899,-517,1280,1331
2017/07/11/15:43:01.051930,115905,1499758981,51340103,0,9072,1799,6440,11892,-551,1314,1329
2017/07/11/15:43:01.066596,115906,1499758981,66386938,0,9081,1815,6434,11884,-493,1362,1298
2017/07/11/15:43:01.097600,115907,1499758981,97397089,0,9090,1823,6427,11880,-482,1324,1305
2017/07/11/15:43:01.111848,115908,1499758981,111495971,0,9098,1835,6431,11871,-573,1297,1354
2017/07/11/15:43:01.126548,115909,1499758981,126359939,0,9100,1854,6450,11856,-579,1382,1334
2017/07/11/15:43:01.148650,115910,1499758981,148562908,0,9100,1858,6455,11852,-548,1457,1319
2017/07/11/15:43:01.174810,115911,1499758981,174573898,0,9109,1839,6435,11859,-555,1358,1331
2017/07/11/15:43:01.186509,115912,1499758981,186320066,0,9122,1836,6430,11852,-626,1334,1337
2017/07/11/15:43:01.209159,115913,1499758981,208925962,0,9126,1863,6447,11836,-504,1404,1281
2017/07/11/15:43:01.231325,115914,1499758981,231220006,0,9125,1883,6465,11824,-495,1308,1256
2017/07/11/15:43:01.246240,115915,1499758981,246098995,0,9128,1888,6477,11814,-540,1381,1334
2017/07/11/15:43:01.269064,115916,1499758981,268920898,0,9134,1886,6485,11805,-616,1382,1332
2017/07/11/15:43:01.291454,115917,1499758981,291281938,0,9141,1900,6499,11790,-610,1427,1308
2017/07/11/15:43:01.306830,115918,1499758981,306519031,0,9144,1921,6513,11777,-542,1440,1253
2017/07/11/15:43:01.328812,115919,1499758981,328654050,0,9147,1927,6519,11770,-512,1361,1314
2017/07/11/15:43:01.351625,115920,1499758981,351414918,0,9153,1931,6529,11759,-581,1284,1361
2017/07/11/15:43:01.367253,115921,1499758981,366637945,0,9162,1948,6549,11738,-585,1436,1315
2017/07/11/15:43:01.389302,115922,1499758981,389066934,0,9170,1956,6556,11726,-548,1495,1231
2017/07/11/15:43:01.411364,115923,1499758981,411214113,0,9178,1952,6548,11726,-536,1359,1239
2017/07/11/15:43:01.434309,115924,1499758981,434091091,0,9184,1955,6548,11720,-528,1273,1315
2017/07/11/15:43:01.449119,115925,1499758981,448961019,0,9188,1965,6564,11706,-542,1367,1286
2017/07/11/15:43:01.472809,115926,1499758981,472541093,0,9190,1978,6574,11697,-524,1419,1263
2017/07/11/15:43:01.494219,115927,1499758981,493937969,0,9194,1979,6580,11690,-618,1406,1267
2017/07/11/15:43:01.509303,115928,1499758981,509040117,0,9199,1989,6586,11681,-576,1393,1280
2017/07/11/15:43:01.531741,115929,1499758981,531539916,0,9203,2009,6586,11675,-488,1388,1225
2017/07/11/15:43:01.556381,115930,1499758981,556092023,0,9205,2019,6581,11675,-461,1374,1257
2017/07/11/15:43:01.568803,115931,1499758981,568685054,0,9208,2018,6583,11671,-591,1351,1297
2017/07/11/15:43:01.591908,115932,1499758981,591603994,0,9212,2030,6598,11657,-595,1376,1255
2017/07/11/15:43:01.614787,115933,1499758981,614363908,0,9214,2053,6614,11643,-503,1506,1223
2017/07/11/15:43:01.636849,115934,1499758981,636533021,0,9215,2055,6608,11645,-504,1453,1244
2017/07/11/15:43:01.651571,115935,1499758981,651405096,0,9220,2049,6598,11647,-560,1334,1306
2017/07/11/15:43:01.674329,115936,1499758981,674174070,0,9223,2058,6608,11638,-546,1355,1302
2017/07/11/15:43:01.688997,115937,1499758981,688772916,0,9226,2067,6620,11628,-528,1482,1268
2017/07/11/15:43:01.713461,115938,1499758981,713257074,0,9233,2068,6618,11623,-593,1459,1244
2017/07/11/15:43:01.733909,115939,1499758981,733680963,0,9237,2080,6617,11617,-543,1399,1264
2017/07/11/15:43:01.750733,115940,1499758981,750408887,0,9236,2089,6625,11612,-531,1389,1286
2017/07/11/15:43:01.771970,115941,1499758981,771615028,0,9238,2088,6626,11610,-507,1378,1273
2017/07/11/15:43:01.794180,115942,1499758981,793822050,0,9244,2089,6628,11605,-557,1364,1270
