time,.header.seq,.header.stamp.secs,.header.stamp.nsecs,.header.frame_id,.ch0,.ch1,.ch2,.ch3,.ch4,.ch5,.ch6,.ch7
2017/07/11/16:15:23.692472,214088,1499760923,692167997,0,45,37,35,28,97,49,64,48
2017/07/11/16:15:23.712482,214089,1499760923,712366104,0,61,45,36,30,92,47,76,59
2017/07/11/16:15:23.735193,214090,1499760923,734975099,0,89,57,37,37,149,53,76,71
2017/07/11/16:15:23.752013,214091,1499760923,751852989,0,116,67,46,43,162,52,85,102
2017/07/11/16:15:23.773242,214092,1499760923,772732973,0,118,73,48,43,167,57,84,108
2017/07/11/16:15:23.795244,214093,1499760923,795053958,0,118,75,50,44,169,60,78,111
2017/07/11/16:15:23.810742,214094,1499760923,810307979,0,115,75,58,49,172,107,75,117
2017/07/11/16:15:23.841543,214095,1499760923,841407060,0,101,87,60,49,116,104,88,129
2017/07/11/16:15:23.855037,214096,1499760923,854876995,0,63,82,57,46,88,106,91,124
2017/07/11/16:15:23.870437,214097,1499760923,870238065,0,65,77,56,44,75,105,90,131
2017/07/11/16:15:23.894287,214098,1499760923,894052982,0,70,90,54,44,62,104,93,131
2017/07/11/16:15:23.915312,214099,1499760923,915029048,0,92,98,56,38,46,66,96,125
2017/07/11/16:15:23.932078,214100,1499760923,931902885,0,92,89,58,56,48,98,95,105
2017/07/11/16:15:23.953132,214101,1499760923,952681064,0,108,100,58,59,49,97,89,97
2017/07/11/16:15:23.975013,214102,1499760923,974872112,0,172,140,90,68,53,103,88,92
2017/07/11/16:15:23.990312,214103,1499760923,990011930,0,177,140,92,68,54,109,88,95
2017/07/11/16:15:24.012750,214104,1499760924,12598991,0,170,137,88,68,55,106,83,98
2017/07/11/16:15:24.035823,214105,1499760924,35598993,0,190,136,86,52,41,75,92,96
2017/07/11/16:15:24.050187,214106,1499760924,50024032,0,186,131,86,50,37,84,97,97
2017/07/11/16:15:24.074819,214107,1499760924,74335098,0,168,118,61,38,29,77,99,101
2017/07/11/16:15:24.095181,214108,1499760924,94980955,0,340,134,65,37,31,73,102,105
2017/07/11/16:15:24.110293,214109,1499760924,110115051,0,354,141,72,38,31,71,99,105
2017/07/11/16:15:24.133446,214110,1499760924,133240938,0,361,146,78,35,30,76,78,118
2017/07/11/16:15:24.155479,214111,1499760924,155189037,0,469,164,81,35,33,83,87,123
2017/07/11/16:15:24.170475,214112,1499760924,170124053,0,510,162,77,33,32,92,87,126
2017/07/11/16:15:24.193116,214113,1499760924,192845106,0,427,143,72,33,28,88,83,120
2017/07/11/16:15:24.215695,214114,1499760924,215200901,0,440,141,66,31,25,88,82,119
2017/07/11/16:15:24.245861,214115,1499760924,245610952,0,432,139,59,33,27,81,77,108
2017/07/11/16:15:24.252466,214116,1499760924,252300977,0,425,131,62,34,28,110,65,109
2017/07/11/16:15:24.275217,214117,1499760924,274993896,0,414,122,60,35,33,147,64,104
2017/07/11/16:15:24.297848,214118,1499760924,297487020,0,414,126,61,34,35,156,62,108
2017/07/11/16:15:24.313016,214119,1499760924,312727928,0,409,151,68,36,37,156,65,129
2017/07/11/16:15:24.335504,214120,1499760924,335171937,0,467,152,67,35,36,158,70,137
2017/07/11/16:15:24.357886,214121,1499760924,357741117,0,460,158,65,33,36,145,110,150
2017/07/11/16:15:24.375059,214122,1499760924,374902009,0,424,148,63,32,32,109,123,149
2017/07/11/16:15:24.395298,214123,1499760924,395020008,0,471,164,61,33,30,98,122,148
2017/07/11/16:15:24.418376,214124,1499760924,418131113,0,463,142,52,37,31,95,120,137
2017/07/11/16:15:24.433414,214125,1499760924,433054924,0,426,141,52,38,35,102,130,133
2017/07/11/16:15:24.455525,214126,1499760924,455099105,0,473,151,59,37,38,118,100,130
2017/07/11/16:15:24.478523,214127,1499760924,478234052,0,511,165,66,38,39,116,81,129
2017/07/11/16:15:24.495556,214128,1499760924,495321989,0,483,149,66,40,42,156,114,139
2017/07/11/16:15:24.517115,214129,1499760924,515491962,0,481,147,64,35,42,163,123,148
2017/07/11/16:15:24.539232,214130,1499760924,538053035,0,568,175,68,36,40,160,112,153
2017/07/11/16:15:24.555130,214131,1499760924,554914951,0,477,155,62,36,34,137,112,152
2017/07/11/16:15:24.575029,214132,1499760924,574918031,0,437,144,56,39,35,168,116,165
2017/07/11/16:15:24.599068,214133,1499760924,598718881,0,445,143,61,42,37,153,97,200
2017/07/11/16:15:24.612699,214134,1499760924,612468957,0,464,151,64,45,36,147,94,197
2017/07/11/16:15:24.635363,214135,1499760924,635215044,0,392,118,58,44,36,148,102,201
2017/07/11/16:15:24.659249,214136,1499760924,659049987,0,425,115,52,46,52,186,118,197
2017/07/11/16:15:24.673153,214137,1499760924,672962903,0,446,125,58,42,50,158,118,198
2017/07/11/16:15:24.695735,214138,1499760924,695431947,0,495,135,61,39,54,152,124,256
2017/07/11/16:15:24.718229,214139,1499760924,718024015,0,527,141,60,37,57,164,130,259
2017/07/11/16:15:24.732977,214140,1499760924,732716083,0,503,139,64,42,62,168,139,266
2017/07/11/16:15:24.755413,214141,1499760924,755163908,0,486,133,64,44,61,186,166,290
2017/07/11/16:15:24.778871,214142,1499760924,778707981,0,529,136,58,45,65,185,177,305
2017/07/11/16:15:24.792662,214143,1499760924,792453050,0,562,148,73,48,60,174,170,248
2017/07/11/16:15:24.815343,214144,1499760924,814963102,0,579,153,79,53,60,174,184,293
2017/07/11/16:15:24.838219,214145,1499760924,837979078,0,569,163,79,50,55,195,180,309
2017/07/11/16:15:24.860150,214146,1499760924,859980106,0,645,204,84,47,48,144,155,324
2017/07/11/16:15:24.875738,214147,1499760924,875477075,0,664,214,87,46,43,150,143,346
2017/07/11/16:15:24.897541,214148,1499760924,897427082,0,587,204,76,48,53,156,149,363
2017/07/11/16:15:24.912585,214149,1499760924,912451982,0,597,193,70,53,62,167,136,335
2017/07/11/16:15:24.936974,214150,1499760924,935906887,0,623,185,69,55,70,185,134,365
2017/07/11/16:15:24.958500,214151,1499760924,958019018,0,631,177,73,68,79,207,146,356
2017/07/11/16:15:24.972800,214152,1499760924,972512960,0,697,202,81,68,80,218,189,362
2017/07/11/16:15:24.995882,214153,1499760924,995479106,0,697,204,81,67,75,240,201,376
2017/07/11/16:15:25.018992,214154,1499760925,18747091,0,643,198,78,65,69,231,205,394
2017/07/11/16:15:25.032944,214155,1499760925,32708883,0,638,207,84,67,70,213,210,385
2017/07/11/16:15:25.055604,214156,1499760925,55318117,0,567,190,81,64,66,201,226,391
2017/07/11/16:15:25.078116,214157,1499760925,77738046,0,484,178,86,68,71,201,195,389
2017/07/11/16:15:25.093188,214158,1499760925,92874050,0,517,175,90,68,72,167,194,391
2017/07/11/16:15:25.115727,214159,1499760925,115367889,0,543,192,97,69,71,196,181,406
2017/07/11/16:15:25.138169,214160,1499760925,137789964,0,605,184,100,70,70,182,183,393
2017/07/11/16:15:25.153350,214161,1499760925,152508974,0,676,189,102,69,74,194,173,396
2017/07/11/16:15:25.177635,214162,1499760925,177510023,0,694,162,95,69,75,195,174,441
2017/07/11/16:15:25.198058,214163,1499760925,197776079,0,704,172,93,68,73,200,157,433
2017/07/11/16:15:25.220416,214164,1499760925,220170021,0,742,162,93,72,79,213,165,408
2017/07/11/16:15:25.235558,214165,1499760925,235232114,0,720,190,92,72,79,231,202,414
2017/07/11/16:15:25.257849,214166,1499760925,257601022,0,640,187,96,73,74,242,190,416
2017/07/11/16:15:25.280478,214167,1499760925,280226945,0,553,178,91,75,71,241,202,348
2017/07/11/16:15:25.294906,214168,1499760925,294792890,0,586,181,96,79,77,258,206,404
2017/07/11/16:15:25.318302,214169,1499760925,317853927,0,620,185,102,75,74,280,208,406
2017/07/11/16:15:25.340375,214170,1499760925,340090036,0,608,165,95,73,69,268,167,401
2017/07/11/16:15:25.355778,214171,1499760925,355382919,0,631,163,94,69,67,262,181,390
2017/07/11/16:15:25.378230,214172,1499760925,377656936,0,678,176,93,70,77,305,170,403
2017/07/11/16:15:25.400240,214173,1499760925,400027036,0,619,165,84,67,77,292,164,331
2017/07/11/16:15:25.419234,214174,1499760925,418991088,0,648,189,91,68,75,243,158,358
2017/07/11/16:15:25.437990,214175,1499760925,437509059,0,666,190,104,77,92,283,255,382
2017/07/11/16:15:25.460378,214176,1499760925,460161924,0,628,179,97,77,92,282,257,387
2017/07/11/16:15:25.475920,214177,1499760925,475553035,0,618,170,97,71,85,231,261,358
2017/07/11/16:15:25.497869,214178,1499760925,497709989,0,635,176,98,67,81,230,264,363
2017/07/11/16:15:25.520616,214179,1499760925,520268917,0,554,148,84,70,82,225,268,338
2017/07/11/16:15:25.534991,214180,1499760925,534868955,0,531,155,73,64,71,167,179,333
2017/07/11/16:15:25.557824,214181,1499760925,557588100,0,549,159,71,63,75,211,170,312
2017/07/11/16:15:25.581194,214182,1499760925,580653905,0,577,164,71,65,77,210,166,322
2017/07/11/16:15:25.595825,214183,1499760925,595371961,0,581,158,70,67,81,217,165,311
2017/07/11/16:15:25.617515,214184,1499760925,617348909,0,590,151,68,64,85,216,155,292
2017/07/11/16:15:25.640325,214185,1499760925,640119075,0,595,128,62,60,77,226,154,238
2017/07/11/16:15:25.655253,214186,1499760925,655118942,0,593,123,63,59,67,186,148,238
2017/07/11/16:15:25.678229,214187,1499760925,677911043,0,540,112,74,57,60,183,152,242
2017/07/11/16:15:25.700405,214188,1499760925,700126886,0,548,101,73,56,53,178,156,241
2017/07/11/16:15:25.715256,214189,1499760925,715044021,0,493,98,68,48,43,206,161,242
2017/07/11/16:15:25.737749,214190,1499760925,737481117,0,432,95,71,44,40,190,157,236
2017/07/11/16:15:25.760569,214191,1499760925,760242938,0,605,105,73,45,45,167,137,230
2017/07/11/16:15:25.775688,214192,1499760925,775217056,0,636,114,60,48,47,159,131,213
2017/07/11/16:15:25.799429,214193,1499760925,799163103,0,656,168,84,53,52,154,154,203
2017/07/11/16:15:25.820621,214194,1499760925,820378065,0,643,171,84,56,62,291,172,207
2017/07/11/16:15:25.835794,214195,1499760925,835469007,0,681,175,81,56,61,299,175,203
2017/07/11/16:15:25.857961,214196,1499760925,857630968,0,592,172,78,54,61,304,196,192
2017/07/11/16:15:25.880242,214197,1499760925,880093097,0,576,170,80,51,58,308,191,188
2017/07/11/16:15:25.898643,214198,1499760925,898370027,0,533,116,50,46,57,312,182,183
2017/07/11/16:15:25.917629,214199,1499760925,917504072,0,560,110,56,49,45,179,178,177
2017/07/11/16:15:25.940059,214200,1499760925,939902067,0,543,99,55,50,46,170,173,180
2017/07/11/16:15:25.955815,214201,1499760925,955477952,0,486,88,53,50,44,153,151,210
2017/07/11/16:15:25.978117,214202,1499760925,977694988,0,445,73,52,53,50,170,148,194
2017/07/11/16:15:26.000696,214203,1499760926,494003,0,513,93,57,54,49,164,134,182
2017/07/11/16:15:26.015244,214204,1499760926,14987945,0,496,97,54,50,50,183,113,209
2017/07/11/16:15:26.040619,214205,1499760926,40317058,0,508,101,56,50,51,180,107,207
2017/07/11/16:15:26.060225,214206,1499760926,59978961,0,488,100,57,50,53,181,127,176
2017/07/11/16:15:26.075552,214207,1499760926,75243949,0,521,106,56,45,49,156,134,202
2017/07/11/16:15:26.099828,214208,1499760926,99456071,0,448,90,51,43,49,156,126,205
2017/07/11/16:15:26.120936,214209,1499760926,120431900,0,556,98,51,42,47,96,126,168
2017/07/11/16:15:26.142981,214210,1499760926,142664909,0,553,101,48,39,47,98,134,170
2017/07/11/16:15:26.157663,214211,1499760926,157455921,0,632,117,51,41,45,151,119,181
2017/07/11/16:15:26.188526,214212,1499760926,188343048,0,626,117,47,43,45,157,112,164
2017/07/11/16:15:26.202705,214213,1499760926,202547073,0,606,113,46,43,46,156,117,158
2017/07/11/16:15:26.217584,214214,1499760926,217369079,0,502,101,42,41,42,157,126,164
2017/07/11/16:15:26.240658,214215,1499760926,240246057,0,561,110,47,41,42,160,124,171
2017/07/11/16:15:26.262912,214216,1499760926,262533903,0,538,111,51,43,41,144,133,177
2017/07/11/16:15:26.277817,214217,1499760926,277595996,0,523,109,53,40,41,141,140,177
2017/07/11/16:15:26.300508,214218,1499760926,300070047,0,579,113,52,41,43,137,133,178
2017/07/11/16:15:26.322616,214219,1499760926,322475910,0,583,112,55,41,46,147,118,178
2017/07/11/16:15:26.337565,214220,1499760926,337388038,0,526,101,52,46,50,141,113,182
2017/07/11/16:15:26.360126,214221,1499760926,359961986,0,505,90,46,45,51,128,115,176
2017/07/11/16:15:26.382809,214222,1499760926,382498025,0,494,84,45,46,54,138,130,164
2017/07/11/16:15:26.398036,214223,1499760926,397710084,0,428,85,45,42,50,137,137,164
2017/07/11/16:15:26.420584,214224,1499760926,420268058,0,430,88,43,43,49,123,146,171
2017/07/11/16:15:26.443011,214225,1499760926,442708969,0,435,92,42,39,46,121,156,170
2017/07/11/16:15:26.465154,214226,1499760926,465003013,0,402,85,41,38,44,96,143,158
2017/07/11/16:15:26.480210,214227,1499760926,479897022,0,487,95,40,38,45,116,125,171
2017/07/11/16:15:26.502990,214228,1499760926,502682924,0,492,100,50,43,46,140,124,188
2017/07/11/16:15:26.518245,214229,1499760926,517937898,0,480,93,50,40,43,143,115,184
2017/07/11/16:15:26.540545,214230,1499760926,540162086,0,450,88,50,40,41,144,101,172
2017/07/11/16:15:26.563479,214231,1499760926,563043117,0,494,91,50,39,43,155,119,169
2017/07/11/16:15:26.577600,214232,1499760926,577398061,0,428,87,51,40,38,125,123,168
2017/07/11/16:15:26.601664,214233,1499760926,601152896,0,447,81,42,38,37,99,126,143
