time,.header.seq,.header.stamp.secs,.header.stamp.nsecs,.header.frame_id,.quat0,.quat1,.quat2,.quat3,.acc0,.acc1,.acc2
2017/07/11/16:15:23.691662,212873,1499760923,691206932,0,4376,4903,9350,11739,240,1989,347
2017/07/11/16:15:23.705531,212874,1499760923,705272912,0,4375,4918,9336,11744,252,1929,344
2017/07/11/16:15:23.727900,212875,1499760923,727602958,0,4362,4941,9333,11741,260,1931,304
2017/07/11/16:15:23.751117,212876,1499760923,750888109,0,4350,4968,9341,11728,265,2048,249
2017/07/11/16:15:23.765873,212877,1499760923,765505075,0,4353,4985,9337,11723,266,2031,301
2017/07/11/16:15:23.780204,212878,1499760923,779989957,0,4362,4997,9322,11726,292,1948,373
2017/07/11/16:15:23.802933,212879,1499760923,802673101,0,4358,5009,9311,11731,297,1918,416
2017/07/11/16:15:23.825544,212880,1499760923,825258970,0,4341,5023,9323,11722,212,1931,361
2017/07/11/16:15:23.842637,212881,1499760923,842222929,0,4329,5038,9353,11696,245,2016,306
2017/07/11/16:15:23.862623,212882,1499760923,862433910,0,4331,5039,9376,11677,334,2022,368
2017/07/11/16:15:23.885498,212883,1499760923,885232925,0,4329,5021,9394,11671,476,1980,450
2017/07/11/16:15:23.900769,212884,1499760923,900295972,0,4317,4969,9425,11672,315,1915,425
2017/07/11/16:15:23.923201,212885,1499760923,922832012,0,4302,4897,9482,11662,282,1963,372
2017/07/11/16:15:23.945558,212886,1499760923,945298910,0,4273,4799,9557,11653,340,2062,386
2017/07/11/16:15:23.960896,212887,1499760923,960609912,0,4235,4639,9612,11686,287,2263,383
2017/07/11/16:15:23.983696,212888,1499760923,983349084,0,4229,4505,9695,11672,102,2218,175
2017/07/11/16:15:24.005315,212889,1499760924,5039930,0,4217,4348,9769,11674,207,2071,393
2017/07/11/16:15:24.020465,212890,1499760924,20299911,0,4215,4158,9836,11688,118,2015,445
2017/07/11/16:15:24.043095,212891,1499760924,42794942,0,4220,3952,9931,11677,-72,2097,315
2017/07/11/16:15:24.073818,212892,1499760924,73446989,0,4231,3745,10038,11649,-102,2141,273
2017/07/11/16:15:24.080681,212893,1499760924,80332040,0,4247,3531,10137,11625,-125,2117,323
2017/07/11/16:15:24.102611,212894,1499760924,102473974,0,4275,3302,10226,11604,-199,2057,332
2017/07/11/16:15:24.125542,212895,1499760924,125260114,0,4313,3059,10313,11580,-297,2057,306
2017/07/11/16:15:24.141898,212896,1499760924,141622066,0,4352,2818,10400,11548,-326,2031,287
2017/07/11/16:15:24.163107,212897,1499760924,162775993,0,4395,2571,10470,11526,-350,1997,327
2017/07/11/16:15:24.185593,212898,1499760924,185264110,0,4445,2319,10547,11490,-411,1925,289
2017/07/11/16:15:24.200957,212899,1499760924,200433015,0,4502,2064,10623,11447,-485,1950,234
2017/07/11/16:15:24.223102,212900,1499760924,222743034,0,4566,1811,10684,11408,-581,1965,245
2017/07/11/16:15:24.246662,212901,1499760924,246501922,0,4631,1563,10733,11372,-633,1987,206
2017/07/11/16:15:24.267887,212902,1499760924,267719030,0,4710,1316,10766,11340,-653,1872,296
2017/07/11/16:15:24.282895,212903,1499760924,282566070,0,4786,1072,10805,11296,-717,1827,292
2017/07/11/16:15:24.305683,212904,1499760924,305383920,0,4866,839,10853,11235,-806,1937,187
2017/07/11/16:15:24.327710,212905,1499760924,327527046,0,4942,617,10888,11183,-840,1958,193
2017/07/11/16:15:24.343042,212906,1499760924,342858076,0,5025,403,10896,11148,-852,1857,262
2017/07/11/16:15:24.365282,212907,1499760924,364999055,0,5108,194,10898,11113,-863,1737,244
2017/07/11/16:15:24.388253,212908,1499760924,387978076,0,5191,-6,10907,11067,-952,1770,202
2017/07/11/16:15:24.402945,212909,1499760924,402715921,0,5283,-197,10902,11028,-998,1809,216
2017/07/11/16:15:24.427106,212910,1499760924,425438880,0,5368,-373,10887,10997,-985,1748,215
2017/07/11/16:15:24.452027,212911,1499760924,451478958,0,5451,-536,10860,10976,-1010,1706,237
2017/07/11/16:15:24.463564,212912,1499760924,463057994,0,5538,-691,10827,10956,-1052,1660,243
2017/07/11/16:15:24.485235,212913,1499760924,485013961,0,5621,-832,10793,10938,-1048,1647,252
2017/07/11/16:15:24.508283,212914,1499760924,508023023,0,5691,-965,10741,10942,-1062,1670,258
2017/07/11/16:15:24.523534,212915,1499760924,523050069,0,5769,-1091,10684,10944,-1124,1590,195
2017/07/11/16:15:24.554073,212916,1499760924,553571939,0,5854,-1193,10628,10944,-1100,1498,274
2017/07/11/16:15:24.568099,212917,1499760924,567786931,0,5928,-1271,10574,10947,-1063,1543,345
2017/07/11/16:15:24.583014,212918,1499760924,582699060,0,5998,-1347,10510,10961,-1094,1576,337
2017/07/11/16:15:24.605385,212919,1499760924,605139017,0,6080,-1421,10437,10977,-1195,1516,318
2017/07/11/16:15:24.627724,212920,1499760924,627533912,0,6169,-1480,10370,10983,-1237,1448,275
2017/07/11/16:15:24.642945,212921,1499760924,642740011,0,6234,-1515,10296,11011,-1072,1533,401
2017/07/11/16:15:24.665591,212922,1499760924,665293931,0,6282,-1548,10206,11063,-1140,1575,405
2017/07/11/16:15:24.688431,212923,1499760924,688004970,0,6349,-1585,10112,11105,-1282,1413,379
2017/07/11/16:15:24.710941,212924,1499760924,710328102,0,6446,-1599,10030,11123,-1326,1312,477
2017/07/11/16:15:24.725477,212925,1499760924,725254058,0,6524,-1581,9963,11140,-1145,1435,524
2017/07/11/16:15:24.747988,212926,1499760924,747751951,0,6573,-1567,9873,11193,-1111,1631,470
2017/07/11/16:15:24.762754,212927,1499760924,762608051,0,6629,-1565,9754,11264,-1213,1434,458
2017/07/11/16:15:24.785135,212928,1499760924,784954071,0,6708,-1553,9635,11321,-1198,1267,525
2017/07/11/16:15:24.807914,212929,1499760924,807682037,0,6775,-1523,9540,11365,-1099,1295,585
2017/07/11/16:15:24.823001,212930,1499760924,822752952,0,6815,-1485,9446,11425,-1072,1477,621
2017/07/11/16:15:24.845935,212931,1499760924,845457077,0,6870,-1454,9335,11487,-1198,1437,577
2017/07/11/16:15:24.868131,212932,1499760924,867736101,0,6941,-1412,9220,11542,-1196,1342,670
2017/07/11/16:15:24.883071,212933,1499760924,882817029,0,7009,-1349,9111,11595,-1147,1395,725
2017/07/11/16:15:24.905061,212934,1499760924,904947042,0,7075,-1280,9005,11646,-1173,1415,686
2017/07/11/16:15:24.934971,212935,1499760924,934715032,0,7134,-1212,8903,11695,-1159,1411,739
2017/07/11/16:15:24.942927,212936,1499760924,942686080,0,7177,-1143,8789,11762,-1021,1425,772
2017/07/11/16:15:24.965307,212937,1499760924,965121030,0,7223,-1079,8656,11838,-1024,1357,836
2017/07/11/16:15:24.988033,212938,1499760924,987746953,0,7281,-1006,8539,11895,-1086,1248,922
2017/07/11/16:15:25.003425,212939,1499760925,3055095,0,7331,-914,8450,11934,-969,1252,898
2017/07/11/16:15:25.025419,212940,1499760925,25124073,0,7362,-817,8367,11981,-879,1423,911
2017/07/11/16:15:25.047738,212941,1499760925,47528028,0,7392,-734,8274,12032,-996,1369,922
2017/07/11/16:15:25.062871,212942,1499760925,62659025,0,7431,-647,8179,12078,-965,1257,945
2017/07/11/16:15:25.085680,212943,1499760925,85336923,0,7462,-553,8105,12113,-850,1344,921
2017/07/11/16:15:25.108485,212944,1499760925,107870101,0,7471,-474,8021,12167,-765,1395,1003
2017/07/11/16:15:25.123462,212945,1499760925,123213052,0,7490,-410,7925,12220,-942,1226,1016
2017/07/11/16:15:25.145199,212946,1499760925,145008087,0,7509,-330,7856,12256,-893,1235,1075
2017/07/11/16:15:25.167865,212947,1499760925,167506933,0,7518,-245,7803,12286,-840,1423,1097
2017/07/11/16:15:25.183296,212948,1499760925,182910919,0,7524,-172,7728,12330,-873,1411,1093
2017/07/11/16:15:25.205270,212949,1499760925,205080032,0,7537,-115,7645,12375,-862,1308,1082
2017/07/11/16:15:25.228059,212950,1499760925,227659940,0,7556,-53,7560,12416,-794,1359,1143
2017/07/11/16:15:25.250857,212951,1499760925,250493049,0,7574,3,7478,12455,-772,1457,1111
2017/07/11/16:15:25.265167,212952,1499760925,265007019,0,7590,51,7379,12504,-821,1486,1204
2017/07/11/16:15:25.287590,212953,1499760925,287477016,0,7613,93,7282,12547,-887,1323,1220
2017/07/11/16:15:25.310782,212954,1499760925,310561895,0,7640,141,7191,12582,-788,1402,1222
2017/07/11/16:15:25.325705,212955,1499760925,325479984,0,7673,173,7072,12629,-715,1498,1289
2017/07/11/16:15:25.348637,212956,1499760925,348198890,0,7717,192,6948,12671,-822,1290,1314
2017/07/11/16:15:25.370150,212957,1499760925,369966983,0,7754,235,6839,12707,-697,1362,1410
2017/07/11/16:15:25.385410,212958,1499760925,385220050,0,7784,266,6729,12747,-638,1276,1349
2017/07/11/16:15:25.408026,212959,1499760925,407824039,0,7816,286,6625,12780,-667,1268,1389
2017/07/11/16:15:25.430651,212960,1499760925,430226087,0,7844,293,6516,12819,-609,1297,1402
2017/07/11/16:15:25.445547,212961,1499760925,445188045,0,7874,289,6412,12854,-682,1218,1434
2017/07/11/16:15:25.468463,212962,1499760925,467952013,0,7902,292,6330,12877,-749,1280,1390
2017/07/11/16:15:25.490477,212963,1499760925,490207910,0,7926,300,6238,12906,-625,1258,1407
2017/07/11/16:15:25.505575,212964,1499760925,505238056,0,7957,310,6150,12930,-649,1189,1419
2017/07/11/16:15:25.527775,212965,1499760925,527564048,0,7983,320,6067,12953,-619,1188,1444
2017/07/11/16:15:25.550644,212966,1499760925,550277948,0,8005,341,6009,12965,-671,1103,1411
2017/07/11/16:15:25.565449,212967,1499760925,565264940,0,8017,373,5962,12979,-515,1238,1409
2017/07/11/16:15:25.587893,212968,1499760925,587698936,0,8032,377,5888,13003,-535,1118,1483
2017/07/11/16:15:25.610274,212969,1499760925,610044002,0,8046,386,5848,13013,-636,973,1511
2017/07/11/16:15:25.625662,212970,1499760925,625418901,0,8048,434,5850,13008,-585,1158,1456
2017/07/11/16:15:25.648275,212971,1499760925,647944927,0,8045,460,5832,13017,-510,1270,1517
2017/07/11/16:15:25.672031,212972,1499760925,670507907,0,8049,458,5795,13032,-652,1036,1532
2017/07/11/16:15:25.685205,212973,1499760925,684989929,0,8054,480,5783,13034,-622,1102,1536
2017/07/11/16:15:25.708157,212974,1499760925,707709074,0,8056,509,5780,13032,-496,1241,1536
2017/07/11/16:15:25.730538,212975,1499760925,730120897,0,8056,516,5767,13038,-614,1172,1512
2017/07/11/16:15:25.745461,212976,1499760925,745228052,0,8057,525,5758,13041,-666,1118,1479
2017/07/11/16:15:25.768011,212977,1499760925,767710924,0,8058,548,5754,13041,-540,1195,1454
2017/07/11/16:15:25.790118,212978,1499760925,789906024,0,8062,556,5737,13046,-534,1146,1492
2017/07/11/16:15:25.805661,212979,1499760925,805236101,0,8066,551,5714,13054,-597,1153,1587
2017/07/11/16:15:25.828118,212980,1499760925,827788114,0,8073,549,5692,13059,-604,1097,1518
2017/07/11/16:15:25.850236,212981,1499760925,849998950,0,8082,567,5689,13054,-565,1084,1462
2017/07/11/16:15:25.865350,212982,1499760925,865164995,0,8084,592,5695,13049,-567,1185,1531
2017/07/11/16:15:25.888123,212983,1499760925,887790918,0,8078,601,5683,13058,-516,1204,1554
2017/07/11/16:15:25.910840,212984,1499760925,910578012,0,8081,584,5649,13071,-576,1095,1543
2017/07/11/16:15:25.925095,212985,1499760925,924962997,0,8089,581,5636,13072,-592,1042,1566
2017/07/11/16:15:25.947896,212986,1499760925,947613000,0,8088,600,5651,13065,-570,1200,1546
2017/07/11/16:15:25.971470,212987,1499760925,971263885,0,8082,609,5652,13068,-534,1196,1537
2017/07/11/16:15:25.985894,212988,1499760925,985586881,0,8081,602,5644,13073,-537,1120,1499
2017/07/11/16:15:26.007654,212989,1499760926,7492065,0,8086,594,5633,13074,-558,1132,1543
2017/07/11/16:15:26.039514,212990,1499760926,38948059,0,8086,593,5633,13074,-582,1135,1520
2017/07/11/16:15:26.045820,212991,1499760926,45403003,0,8085,600,5636,13073,-560,1138,1493
2017/07/11/16:15:26.067979,212992,1499760926,67794084,0,8085,600,5636,13073,-543,1136,1468
2017/07/11/16:15:26.099327,212993,1499760926,98609924,0,8089,595,5633,13073,-534,1121,1493
2017/07/11/16:15:26.105625,212994,1499760926,105324029,0,8089,594,5632,13073,-583,1106,1521
2017/07/11/16:15:26.128357,212995,1499760926,127731084,0,8088,599,5634,13072,-555,1157,1490
2017/07/11/16:15:26.150505,212996,1499760926,150237083,0,8090,599,5625,13075,-532,1131,1501
2017/07/11/16:15:26.165580,212997,1499760926,165246963,0,8095,596,5613,13077,-570,1084,1534
2017/07/11/16:15:26.189387,212998,1499760926,189270973,0,8100,601,5619,13071,-613,1130,1501
2017/07/11/16:15:26.210833,212999,1499760926,210421085,0,8102,610,5622,13069,-569,1217,1501
2017/07/11/16:15:26.225890,213000,1499760926,225469112,0,8106,613,5604,13073,-525,1117,1511
2017/07/11/16:15:26.247811,213001,1499760926,247611045,0,8110,613,5593,13076,-519,1093,1515
2017/07/11/16:15:26.270551,213002,1499760926,270292043,0,8112,616,5592,13075,-561,1122,1537
2017/07/11/16:15:26.286004,213003,1499760926,285473108,0,8115,615,5595,13072,-612,1163,1523
2017/07/11/16:15:26.308281,213004,1499760926,308063983,0,8120,617,5595,13069,-563,1136,1526
2017/07/11/16:15:26.330145,213005,1499760926,329941034,0,8124,617,5593,13067,-560,1141,1531
2017/07/11/16:15:26.345549,213006,1499760926,345112085,0,8128,617,5587,13067,-565,1143,1566
2017/07/11/16:15:26.368324,213007,1499760926,367842912,0,8134,619,5583,13065,-583,1134,1525
2017/07/11/16:15:26.390466,213008,1499760926,390120983,0,8142,625,5578,13062,-565,1144,1528
2017/07/11/16:15:26.412693,213009,1499760926,412555932,0,8147,634,5576,13059,-555,1111,1520
2017/07/11/16:15:26.428025,213010,1499760926,427721023,0,8147,651,5582,13056,-504,1137,1497
2017/07/11/16:15:26.450299,213011,1499760926,450074911,0,8147,651,5582,13056,-523,1140,1499
2017/07/11/16:15:26.472752,213012,1499760926,472580909,0,8149,645,5574,13058,-502,1089,1487
2017/07/11/16:15:26.488111,213013,1499760926,487775087,0,8154,638,5575,13055,-550,1125,1526
2017/07/11/16:15:26.515374,213014,1499760926,515136957,0,8157,639,5583,13050,-546,1109,1514
2017/07/11/16:15:26.533221,213015,1499760926,532917976,0,8156,648,5595,13045,-560,1159,1485
2017/07/11/16:15:26.547741,213016,1499760926,547533988,0,8156,647,5586,13049,-544,1176,1509
2017/07/11/16:15:26.570590,213017,1499760926,570441007,0,8161,640,5566,13054,-580,1029,1510
2017/07/11/16:15:26.593089,213018,1499760926,592784881,0,8167,654,5570,13048,-552,1089,1484
