time,.header.seq,.header.stamp.secs,.header.stamp.nsecs,.header.frame_id,.quat0,.quat1,.quat2,.quat3,.acc0,.acc1,.acc2
2017/07/11/16:09:10.841706,194259,1499760550,841563940,0,2363,3456,9967,12310,259,2162,366
2017/07/11/16:09:10.865668,194260,1499760550,864825963,0,2382,3481,9924,12334,322,2006,477
2017/07/11/16:09:10.880052,194261,1499760550,879580020,0,2408,3508,9877,12359,356,1725,411
2017/07/11/16:09:10.906750,194262,1499760550,906505107,0,2422,3535,9877,12349,393,1738,405
2017/07/11/16:09:10.925522,194263,1499760550,925170898,0,2423,3561,9917,12309,435,1965,337
2017/07/11/16:09:10.947738,194264,1499760550,947550058,0,2427,3557,9953,12281,444,2088,424
2017/07/11/16:09:10.961983,194265,1499760550,961819887,0,2432,3528,9984,12263,337,1997,390
2017/07/11/16:09:10.985231,194266,1499760550,984961032,0,2437,3481,10024,12242,339,1959,401
2017/07/11/16:09:11.008693,194267,1499760551,7653951,0,2429,3408,10085,12215,359,2037,384
2017/07/11/16:09:11.022355,194268,1499760551,22005081,0,2406,3290,10121,12221,311,2127,433
2017/07/11/16:09:11.045621,194269,1499760551,44909954,0,2414,3175,10193,12190,152,2173,173
2017/07/11/16:09:11.068448,194270,1499760551,68034887,0,2395,3067,10237,12185,206,2168,358
2017/07/11/16:09:11.081892,194271,1499760551,81670999,0,2394,2925,10295,12171,110,2094,320
2017/07/11/16:09:11.105612,194272,1499760551,105217933,0,2391,2780,10361,12150,130,2134,295
2017/07/11/16:09:11.128829,194273,1499760551,128237009,0,2389,2614,10406,12148,76,2140,328
2017/07/11/16:09:11.142119,194274,1499760551,141933917,0,2395,2436,10440,12155,-10,2043,350
2017/07/11/16:09:11.164806,194275,1499760551,164585113,0,2412,2257,10492,12142,-58,1987,280
2017/07/11/16:09:11.187329,194276,1499760551,187161922,0,2442,2073,10559,12110,-92,2035,242
2017/07/11/16:09:11.202018,194277,1499760551,201764106,0,2485,1884,10616,12083,-112,2039,315
2017/07/11/16:09:11.227673,194278,1499760551,227097034,0,2532,1689,10658,12065,-163,2017,292
2017/07/11/16:09:11.248554,194279,1499760551,247611045,0,2582,1495,10706,12037,-277,1982,253
2017/07/11/16:09:11.261869,194280,1499760551,261666059,0,2643,1307,10758,11999,-309,1953,209
2017/07/11/16:09:11.285127,194281,1499760551,284410953,0,2711,1127,10816,11950,-356,1980,208
2017/07/11/16:09:11.307458,194282,1499760551,307303905,0,2786,951,10851,11916,-343,2040,243
2017/07/11/16:09:11.321761,194283,1499760551,321636915,0,2855,772,10858,11906,-344,1972,271
2017/07/11/16:09:11.345068,194284,1499760551,344501972,0,2919,590,10866,11894,-421,1877,259
2017/07/11/16:09:11.367843,194285,1499760551,367629051,0,3009,404,10881,11866,-544,1903,202
2017/07/11/16:09:11.382883,194286,1499760551,382246971,0,3115,230,10894,11831,-557,1889,211
2017/07/11/16:09:11.404474,194287,1499760551,404259920,0,3220,68,10894,11805,-529,1874,284
2017/07/11/16:09:11.429029,194288,1499760551,428539991,0,3318,-94,10890,11781,-561,1859,290
2017/07/11/16:09:11.442520,194289,1499760551,442109107,0,3418,-254,10889,11751,-643,1836,238
2017/07/11/16:09:11.464377,194290,1499760551,464255094,0,3519,-408,10878,11727,-693,1879,245
2017/07/11/16:09:11.488997,194291,1499760551,487785100,0,3621,-549,10859,11708,-714,1842,226
2017/07/11/16:09:11.502207,194292,1499760551,501981973,0,3716,-686,10831,11697,-734,1766,276
2017/07/11/16:09:11.524508,194293,1499760551,524219036,0,3808,-815,10810,11679,-768,1734,273
2017/07/11/16:09:11.548142,194294,1499760551,547627925,0,3899,-939,10784,11664,-776,1766,304
2017/07/11/16:09:11.562564,194295,1499760551,562220096,0,3990,-1066,10739,11663,-856,1811,241
2017/07/11/16:09:11.585343,194296,1499760551,584878921,0,4092,-1180,10673,11678,-867,1774,205
2017/07/11/16:09:11.607722,194297,1499760551,607425928,0,4190,-1287,10607,11691,-854,1663,305
2017/07/11/16:09:11.622292,194298,1499760551,621975898,0,4291,-1382,10558,11688,-910,1643,278
2017/07/11/16:09:11.644519,194299,1499760551,644269943,0,4395,-1467,10491,11699,-914,1709,341
2017/07/11/16:09:11.675930,194300,1499760551,675071001,0,4502,-1552,10415,11715,-967,1686,337
2017/07/11/16:09:11.681839,194301,1499760551,681598901,0,4622,-1627,10334,11731,-1054,1691,301
2017/07/11/16:09:11.706272,194302,1499760551,705741882,0,4730,-1684,10250,11753,-955,1637,339
2017/07/11/16:09:11.727853,194303,1499760551,727499008,0,4805,-1733,10160,11794,-898,1693,417
2017/07/11/16:09:11.742006,194304,1499760551,741811990,0,4874,-1788,10036,11863,-998,1635,478
2017/07/11/16:09:11.764877,194305,1499760551,764645099,0,4970,-1855,9908,11921,-1143,1433,453
2017/07/11/16:09:11.787745,194306,1499760551,787537097,0,5099,-1888,9819,11935,-1189,1454,423
2017/07/11/16:09:11.802476,194307,1499760551,802107095,0,5182,-1885,9768,11941,-969,1694,531
2017/07/11/16:09:11.824667,194308,1499760551,824410915,0,5214,-1894,9659,12014,-934,1766,595
2017/07/11/16:09:11.849030,194309,1499760551,847676038,0,5257,-1929,9517,12103,-1125,1446,544
2017/07/11/16:09:11.862685,194310,1499760551,862325906,0,5351,-1956,9388,12158,-1226,1262,616
2017/07/11/16:09:11.884939,194311,1499760551,884643077,0,5447,-1940,9313,12175,-1097,1410,690
2017/07/11/16:09:11.907625,194312,1499760551,907461881,0,5500,-1921,9232,12216,-922,1750,647
2017/07/11/16:09:11.930442,194313,1499760551,930247068,0,5534,-1930,9081,12313,-976,1621,664
2017/07/11/16:09:11.953035,194314,1499760551,952750921,0,5590,-1945,8920,12402,-1109,1208,737
2017/07/11/16:09:11.967714,194315,1499760551,967616081,0,5658,-1919,8819,12447,-1093,1268,800
2017/07/11/16:09:11.982210,194316,1499760551,981928110,0,5705,-1875,8744,12486,-972,1602,785
2017/07/11/16:09:12.004961,194317,1499760552,4477024,0,5728,-1854,8617,12566,-969,1601,796
2017/07/11/16:09:12.028415,194318,1499760552,28131961,0,5775,-1840,8465,12650,-1060,1289,799
2017/07/11/16:09:12.042024,194319,1499760552,41848897,0,5826,-1793,8360,12703,-1019,1182,889
2017/07/11/16:09:12.067646,194320,1499760552,67404985,0,5849,-1723,8302,12740,-914,1441,880
2017/07/11/16:09:12.088851,194321,1499760552,87750911,0,5863,-1664,8215,12798,-919,1495,881
2017/07/11/16:09:12.102373,194322,1499760552,102037906,0,5896,-1618,8096,12864,-977,1316,962
2017/07/11/16:09:12.124794,194323,1499760552,124572038,0,5947,-1558,8001,12907,-1040,1264,969
2017/07/11/16:09:12.146914,194324,1499760552,146744012,0,5980,-1481,7927,12946,-880,1442,976
2017/07/11/16:09:12.162286,194325,1499760552,162041902,0,6005,-1414,7835,12999,-887,1397,993
2017/07/11/16:09:12.184423,194326,1499760552,184248924,0,6046,-1355,7722,13053,-972,1252,1080
2017/07/11/16:09:12.207335,194327,1499760552,207043886,0,6094,-1287,7626,13094,-955,1379,1105
2017/07/11/16:09:12.222393,194328,1499760552,222153902,0,6123,-1225,7521,13147,-874,1443,1077
2017/07/11/16:09:12.244424,194329,1499760552,244285106,0,6142,-1181,7380,13222,-778,1298,1138
2017/07/11/16:09:12.267320,194330,1499760552,267045974,0,6178,-1148,7230,13291,-808,1122,1251
2017/07/11/16:09:12.291937,194331,1499760552,291039943,0,6224,-1099,7121,13332,-940,1170,1251
2017/07/11/16:09:12.305212,194332,1499760552,304933071,0,6250,-1039,7046,13365,-844,1349,1157
2017/07/11/16:09:12.326786,194333,1499760552,326670885,0,6266,-989,6933,13420,-710,1384,1235
2017/07/11/16:09:12.350869,194334,1499760552,350441932,0,6301,-959,6795,13477,-857,1176,1338
2017/07/11/16:09:12.366443,194335,1499760552,366254091,0,6343,-916,6685,13515,-917,1186,1366
2017/07/11/16:09:12.387207,194336,1499760552,387008905,0,6379,-859,6586,13550,-724,1296,1304
2017/07/11/16:09:12.411156,194337,1499760552,410268068,0,6409,-813,6463,13598,-658,1293,1366
2017/07/11/16:09:12.424399,194338,1499760552,424200057,0,6441,-784,6338,13643,-817,1097,1374
2017/07/11/16:09:12.447506,194339,1499760552,446979045,0,6472,-737,6243,13675,-774,1146,1388
2017/07/11/16:09:12.470148,194340,1499760552,469825029,0,6505,-706,6127,13714,-678,1290,1463
2017/07/11/16:09:12.484441,194341,1499760552,484142065,0,6549,-700,5980,13757,-810,1079,1515
2017/07/11/16:09:12.507223,194342,1499760552,506963014,0,6598,-668,5867,13784,-832,1123,1542
2017/07/11/16:09:12.530176,194343,1499760552,530040979,0,6622,-620,5772,13815,-580,1203,1411
2017/07/11/16:09:12.544193,194344,1499760552,544071912,0,6643,-595,5662,13852,-640,1019,1444
2017/07/11/16:09:12.568739,194345,1499760552,568250894,0,6679,-566,5565,13875,-754,924,1583
2017/07/11/16:09:12.590318,194346,1499760552,590123891,0,6720,-522,5497,13884,-812,1136,1641
2017/07/11/16:09:12.604345,194347,1499760552,604181051,0,6751,-478,5402,13908,-639,1155,1580
2017/07/11/16:09:12.627088,194348,1499760552,626863956,0,6770,-442,5288,13943,-532,915,1560
2017/07/11/16:09:12.650414,194349,1499760552,650238990,0,6794,-406,5198,13967,-598,849,1573
2017/07/11/16:09:12.664798,194350,1499760552,664571046,0,6822,-355,5120,13983,-523,1002,1654
2017/07/11/16:09:12.687318,194351,1499760552,687014102,0,6848,-308,5032,14004,-491,977,1612
2017/07/11/16:09:12.710811,194352,1499760552,709857940,0,6866,-264,4938,14029,-536,967,1683
2017/07/11/16:09:12.724991,194353,1499760552,724654912,0,6876,-211,4863,14051,-551,865,1646
2017/07/11/16:09:12.747217,194354,1499760552,746923923,0,6888,-126,4821,14061,-508,886,1568
2017/07/11/16:09:12.771334,194355,1499760552,770256042,0,6904,-31,4780,14068,-314,1028,1615
2017/07/11/16:09:12.784577,194356,1499760552,784409999,0,6909,28,4713,14088,-328,972,1626
2017/07/11/16:09:12.807409,194357,1499760552,807142019,0,6912,87,4664,14102,-433,830,1632
2017/07/11/16:09:12.831263,194358,1499760552,830313920,0,6914,167,4647,14106,-370,963,1619
2017/07/11/16:09:12.844971,194359,1499760552,844571113,0,6913,234,4617,14115,-288,1096,1656
2017/07/11/16:09:12.867217,194360,1499760552,866961002,0,6910,274,4566,14133,-300,914,1622
2017/07/11/16:09:12.890227,194361,1499760552,889910936,0,6909,303,4529,14145,-289,920,1637
2017/07/11/16:09:12.904762,194362,1499760552,904483079,0,6909,322,4506,14152,-427,918,1743
2017/07/11/16:09:12.927398,194363,1499760552,927067041,0,6902,361,4501,14156,-387,913,1774
2017/07/11/16:09:12.950044,194364,1499760552,949906110,0,6891,388,4499,14161,-279,1101,1677
2017/07/11/16:09:12.964586,194365,1499760552,964272022,0,6889,386,4456,14176,-307,941,1614
2017/07/11/16:09:12.987074,194366,1499760552,986816883,0,6889,385,4423,14186,-426,868,1772
2017/07/11/16:09:13.010918,194367,1499760553,10427951,0,6884,416,4424,14187,-300,963,1691
2017/07/11/16:09:13.024284,194368,1499760553,24152994,0,6875,435,4412,14195,-252,1008,1652
2017/07/11/16:09:13.047390,194369,1499760553,47058105,0,6872,435,4394,14202,-366,893,1715
2017/07/11/16:09:13.069271,194370,1499760553,69103956,0,6868,447,4394,14203,-344,987,1745
2017/07/11/16:09:13.085018,194371,1499760553,84656953,0,6859,465,4389,14209,-283,896,1699
2017/07/11/16:09:13.107085,194372,1499760553,106884002,0,6852,478,4392,14210,-282,986,1661
2017/07/11/16:09:13.129725,194373,1499760553,129571914,0,6847,477,4388,14214,-299,984,1628
2017/07/11/16:09:13.144329,194374,1499760553,144153118,0,6844,469,4387,14216,-417,928,1747
2017/07/11/16:09:13.166952,194375,1499760553,166723012,0,6840,479,4391,14217,-384,999,1739
2017/07/11/16:09:13.189911,194376,1499760553,189543008,0,6839,487,4375,14222,-259,990,1669
2017/07/11/16:09:13.209097,194377,1499760553,208817005,0,6842,488,4356,14226,-300,899,1619
2017/07/11/16:09:13.227573,194378,1499760553,227093935,0,6840,498,4356,14227,-362,882,1702
2017/07/11/16:09:13.249465,194379,1499760553,249310016,0,6834,519,4363,14227,-351,869,1703
2017/07/11/16:09:13.264766,194380,1499760553,264396905,0,6831,536,4359,14229,-255,1006,1683
2017/07/11/16:09:13.287020,194381,1499760553,286796092,0,6831,538,4339,14235,-253,948,1632
2017/07/11/16:09:13.309902,194382,1499760553,309580087,0,6829,538,4338,14236,-372,914,1710
2017/07/11/16:09:13.326771,194383,1499760553,326199054,0,6826,549,4346,14235,-338,985,1697
2017/07/11/16:09:13.347568,194384,1499760553,347045898,0,6823,559,4337,14238,-259,954,1693
2017/07/11/16:09:13.370032,194385,1499760553,369751930,0,6826,561,4331,14239,-285,954,1696
2017/07/11/16:09:13.384418,194386,1499760553,384275913,0,6830,560,4323,14239,-322,974,1780
2017/07/11/16:09:13.415458,194387,1499760553,415179967,0,6831,569,4323,14239,-318,890,1717
2017/07/11/16:09:13.431445,194388,1499760553,431231975,0,6831,588,4339,14233,-272,1014,1646
2017/07/11/16:09:13.444690,194389,1499760553,444411039,0,6835,585,4327,14235,-266,972,1668
2017/07/11/16:09:13.467731,194390,1499760553,467293977,0,6841,579,4309,14238,-334,837,1768
2017/07/11/16:09:13.495009,194391,1499760553,494888067,0,6842,596,4327,14231,-307,955,1711
2017/07/11/16:09:13.505142,194392,1499760553,504823923,0,6842,612,4334,14228,-227,1050,1634
2017/07/11/16:09:13.527019,194393,1499760553,526773929,0,6846,600,4311,14234,-289,933,1666
2017/07/11/16:09:13.549975,194394,1499760553,549576044,0,6854,590,4298,14234,-333,816,1735
2017/07/11/16:09:13.564522,194395,1499760553,564294099,0,6857,602,4321,14225,-300,983,1704
2017/07/11/16:09:13.586995,194396,1499760553,586832046,0,6857,603,4323,14225,-295,1020,1680
2017/07/11/16:09:13.610347,194397,1499760553,609774112,0,6856,594,4310,14229,-291,865,1650
2017/07/11/16:09:13.624460,194398,1499760553,624228954,0,6862,593,4309,14227,-287,876,1710
2017/07/11/16:09:13.647451,194399,1499760553,647078990,0,6864,603,4319,14222,-269,938,1697
2017/07/11/16:09:13.678218,194400,1499760553,677879095,0,6863,606,4315,14224,-270,1022,1678
2017/07/11/16:09:13.686465,194401,1499760553,686290025,0,6862,598,4297,14231,-299,860,1660
2017/07/11/16:09:13.707221,194402,1499760553,707031011,0,6862,599,4297,14230,-319,884,1687
2017/07/11/16:09:13.729763,194403,1499760553,729361057,0,6860,608,4309,14227,-297,955,1667
2017/07/11/16:09:13.752687,194404,1499760553,752381086,0,6860,610,4310,14227,-238,997,1664
2017/07/11/16:09:13.766885,194405,1499760553,766702890,0,6860,610,4309,14227,-285,912,1651
2017/07/11/16:09:13.789379,194406,1499760553,789165019,0,6861,620,4310,14226,-312,948,1715
2017/07/11/16:09:13.804393,194407,1499760553,804177999,0,6861,634,4310,14225,-319,963,1682
2017/07/11/16:09:13.827324,194408,1499760553,826951980,0,6862,652,4305,14225,-283,931,1653
