time,.header.seq,.header.stamp.secs,.header.stamp.nsecs,.header.frame_id,.ch0,.ch1,.ch2,.ch3,.ch4,.ch5,.ch6,.ch7
2017/07/11/15:26:35.174816,68000,1499757995,174534082,0,31,95,42,24,22,29,35,37
2017/07/11/15:26:35.197578,68001,1499757995,197400093,0,30,97,42,22,22,26,33,37
2017/07/11/15:26:35.215019,68002,1499757995,214821100,0,31,98,41,21,21,27,25,29
2017/07/11/15:26:35.234794,68003,1499757995,234466075,0,26,96,39,23,19,26,25,27
2017/07/11/15:26:35.257452,68004,1499757995,257091999,0,24,57,28,22,20,27,44,34
2017/07/11/15:26:35.272250,68005,1499757995,272038936,0,27,57,27,22,20,30,45,33
2017/07/11/15:26:35.294921,68006,1499757995,294471979,0,28,67,30,21,22,39,45,40
2017/07/11/15:26:35.317482,68007,1499757995,317194938,0,37,92,37,22,25,40,59,72
2017/07/11/15:26:35.331997,68008,1499757995,331825971,0,43,114,47,22,25,42,62,74
2017/07/11/15:26:35.355917,68009,1499757995,355782985,0,46,129,53,26,26,44,68,79
2017/07/11/15:26:35.376999,68010,1499757995,376859903,0,47,130,58,28,29,43,70,82
2017/07/11/15:26:35.395283,68011,1499757995,394922018,0,59,202,121,41,32,33,73,91
2017/07/11/15:26:35.414437,68012,1499757995,414267063,0,67,203,131,48,34,36,73,72
2017/07/11/15:26:35.437184,68013,1499757995,437071084,0,67,203,135,50,36,35,81,79
2017/07/11/15:26:35.452119,68014,1499757995,451931953,0,74,210,136,57,38,33,73,86
2017/07/11/15:26:35.474381,68015,1499757995,474241971,0,73,259,158,69,43,36,78,102
2017/07/11/15:26:35.497411,68016,1499757995,497272968,0,74,290,146,72,44,37,112,105
2017/07/11/15:26:35.512005,68017,1499757995,511837959,0,72,349,150,75,47,39,163,151
2017/07/11/15:26:35.534779,68018,1499757995,534532070,0,70,369,150,75,50,48,174,159
2017/07/11/15:26:35.556982,68019,1499757995,556797027,0,74,413,157,76,52,52,187,163
2017/07/11/15:26:35.579821,68020,1499757995,579507112,0,97,398,156,69,50,60,234,165
2017/07/11/15:26:35.594748,68021,1499757995,594558000,0,130,466,192,64,50,62,256,207
2017/07/11/15:26:35.617286,68022,1499757995,617053985,0,132,547,322,77,54,65,257,207
2017/07/11/15:26:35.647774,68023,1499757995,647569894,0,243,568,336,86,56,66,262,215
2017/07/11/15:26:35.654868,68024,1499757995,654685020,0,249,592,338,92,61,67,263,221
2017/07/11/15:26:35.676999,68025,1499757995,676819086,0,280,680,442,124,78,82,291,241
2017/07/11/15:26:35.712225,68026,1499757995,711182117,0,281,765,444,127,78,90,308,235
2017/07/11/15:26:35.722690,68027,1499757995,722506999,0,291,727,379,134,84,101,357,294
2017/07/11/15:26:35.745388,68028,1499757995,745234966,0,227,729,384,130,82,106,363,299
2017/07/11/15:26:35.759416,68029,1499757995,759308099,0,227,712,406,131,84,119,423,379
2017/07/11/15:26:35.775235,68030,1499757995,774893999,0,205,707,328,134,91,123,426,410
2017/07/11/15:26:35.806566,68031,1499757995,806417942,0,209,597,334,135,101,126,442,426
2017/07/11/15:26:35.819741,68032,1499757995,819421052,0,212,610,372,127,103,125,435,407
2017/07/11/15:26:35.834725,68033,1499757995,834583044,0,201,625,374,132,106,128,449,414
2017/07/11/15:26:35.857285,68034,1499757995,857160091,0,193,616,351,130,104,119,417,337
2017/07/11/15:26:35.879470,68035,1499757995,879302978,0,173,604,340,105,93,109,427,292
2017/07/11/15:26:35.894945,68036,1499757995,894723892,0,168,694,349,118,113,123,433,292
2017/07/11/15:26:35.919169,68037,1499757995,918999910,0,158,664,288,112,106,128,491,285
2017/07/11/15:26:35.939558,68038,1499757995,939306974,0,145,654,278,109,112,129,512,279
2017/07/11/15:26:35.955173,68039,1499757995,954778909,0,149,712,300,110,116,151,619,427
2017/07/11/15:26:35.977077,68040,1499757995,976911067,0,148,679,273,103,110,150,598,435
2017/07/11/15:26:35.999734,68041,1499757995,999496936,0,127,567,236,90,89,140,581,418
2017/07/11/15:26:36.022199,68042,1499757996,21967887,0,117,560,244,92,92,131,501,412
2017/07/11/15:26:36.037438,68043,1499757996,37197113,0,124,556,230,87,85,133,493,429
2017/07/11/15:26:36.059458,68044,1499757996,59309959,0,130,492,203,83,90,147,565,380
2017/07/11/15:26:36.074705,68045,1499757996,74523925,0,130,454,200,84,94,164,609,400
2017/07/11/15:26:36.096902,68046,1499757996,96801996,0,134,415,180,81,85,158,601,396
2017/07/11/15:26:36.119778,68047,1499757996,119585990,0,129,461,170,76,83,168,671,415
2017/07/11/15:26:36.134511,68048,1499757996,134342908,0,129,415,166,77,83,167,695,438
2017/07/11/15:26:36.157270,68049,1499757996,156991958,0,125,449,166,73,80,134,532,372
2017/07/11/15:26:36.180066,68050,1499757996,179833889,0,114,454,150,71,83,116,470,367
2017/07/11/15:26:36.194455,68051,1499757996,194317102,0,118,458,171,65,83,116,471,407
2017/07/11/15:26:36.218246,68052,1499757996,218117952,0,120,394,170,65,83,96,412,381
2017/07/11/15:26:36.239588,68053,1499757996,239424943,0,113,396,175,65,81,99,385,347
2017/07/11/15:26:36.255400,68054,1499757996,254744052,0,124,378,177,63,73,93,379,346
2017/07/11/15:26:36.276931,68055,1499757996,276791095,0,135,396,181,67,78,119,433,354
2017/07/11/15:26:36.299704,68056,1499757996,299493074,0,133,447,178,68,88,134,444,341
2017/07/11/15:26:36.314875,68057,1499757996,314629077,0,134,432,175,73,87,135,413,337
2017/07/11/15:26:36.337108,68058,1499757996,336967945,0,147,481,166,70,85,139,439,377
2017/07/11/15:26:36.359776,68059,1499757996,359486103,0,146,566,187,77,85,150,455,407
2017/07/11/15:26:36.374454,68060,1499757996,374331951,0,140,569,185,76,76,142,493,386
2017/07/11/15:26:36.397157,68061,1499757996,396976947,0,141,582,169,85,68,127,498,411
2017/07/11/15:26:36.419684,68062,1499757996,419435024,0,144,584,164,82,69,130,496,414
2017/07/11/15:26:36.435188,68063,1499757996,434900999,0,148,577,182,85,71,120,488,393
2017/07/11/15:26:36.457242,68064,1499757996,457061052,0,133,500,187,84,67,113,470,360
2017/07/11/15:26:36.479610,68065,1499757996,479343891,0,153,477,192,93,87,134,460,425
2017/07/11/15:26:36.502211,68066,1499757996,501951932,0,146,454,188,84,83,139,450,400
2017/07/11/15:26:36.525149,68067,1499757996,524655103,0,147,483,193,81,85,136,457,403
2017/07/11/15:26:36.539447,68068,1499757996,539294004,0,143,505,183,81,88,132,391,389
2017/07/11/15:26:36.562677,68069,1499757996,562319040,0,151,506,166,82,94,137,395,380
2017/07/11/15:26:36.577140,68070,1499757996,576968908,0,130,510,164,69,78,113,315,296
2017/07/11/15:26:36.599583,68071,1499757996,599425077,0,128,482,167,74,88,112,322,276
2017/07/11/15:26:36.622079,68072,1499757996,621926069,0,134,484,165,79,86,112,322,291
2017/07/11/15:26:36.637365,68073,1499757996,637231111,0,127,490,185,83,83,114,321,309
2017/07/11/15:26:36.659643,68074,1499757996,659419059,0,128,449,166,75,75,130,348,306
2017/07/11/15:26:36.682078,68075,1499757996,681889057,0,143,430,161,73,68,129,368,379
2017/07/11/15:26:36.697271,68076,1499757996,696979999,0,194,406,161,77,63,132,366,447
2017/07/11/15:26:36.719659,68077,1499757996,719475984,0,208,468,169,73,72,153,350,468
2017/07/11/15:26:36.742329,68078,1499757996,742080926,0,212,406,143,79,76,152,369,483
2017/07/11/15:26:36.757299,68079,1499757996,757138013,0,250,396,170,113,104,147,391,514
2017/07/11/15:26:36.787660,68080,1499757996,787513017,0,248,400,166,113,103,158,352,483
2017/07/11/15:26:36.801857,68081,1499757996,801737070,0,221,408,159,112,100,156,339,450
2017/07/11/15:26:36.824438,68082,1499757996,824261903,0,211,287,141,111,91,137,342,461
2017/07/11/15:26:36.839725,68083,1499757996,839448928,0,237,349,145,107,94,145,338,437
2017/07/11/15:26:36.862106,68084,1499757996,861874103,0,231,382,145,93,84,139,287,438
2017/07/11/15:26:36.877372,68085,1499757996,877247095,0,231,383,151,100,89,128,336,478
2017/07/11/15:26:36.899502,68086,1499757996,899380922,0,228,402,159,101,90,146,358,456
2017/07/11/15:26:36.922193,68087,1499757996,922007083,0,235,431,169,104,94,164,357,425
2017/07/11/15:26:36.937089,68088,1499757996,936963081,0,225,447,171,112,96,161,370,431
2017/07/11/15:26:36.967968,68089,1499757996,967695951,0,196,441,170,102,80,157,366,405
2017/07/11/15:26:36.981988,68090,1499757996,981829881,0,208,432,164,101,82,174,371,452
2017/07/11/15:26:36.997094,68091,1499757996,996916055,0,230,406,160,109,111,192,397,462
2017/07/11/15:26:37.019466,68092,1499757997,19289970,0,237,492,190,105,108,178,393,461
2017/07/11/15:26:37.042420,68093,1499757997,42081117,0,232,568,226,103,106,173,386,478
2017/07/11/15:26:37.056945,68094,1499757997,56817054,0,244,551,209,95,105,173,384,492
2017/07/11/15:26:37.081054,68095,1499757997,80883979,0,232,572,221,93,102,148,338,382
2017/07/11/15:26:37.101967,68096,1499757997,101773977,0,212,587,228,82,73,95,291,403
2017/07/11/15:26:37.116987,68097,1499757997,116852998,0,191,515,199,91,78,102,290,403
2017/07/11/15:26:37.143008,68098,1499757997,142837047,0,220,403,158,86,81,163,263,426
2017/07/11/15:26:37.166265,68099,1499757997,162101030,0,226,438,173,87,82,161,278,443
2017/07/11/15:26:37.177155,68100,1499757997,176990985,0,234,454,196,103,97,159,302,497
2017/07/11/15:26:37.199707,68101,1499757997,199418067,0,262,431,179,104,104,194,295,483
2017/07/11/15:26:37.222849,68102,1499757997,222313880,0,285,422,186,106,112,190,309,493
2017/07/11/15:26:37.244909,68103,1499757997,244777917,0,261,413,196,113,111,147,332,498
2017/07/11/15:26:37.259491,68104,1499757997,259282112,0,260,393,187,118,114,147,327,474
2017/07/11/15:26:37.281997,68105,1499757997,281801939,0,252,359,158,102,105,150,290,426
2017/07/11/15:26:37.297681,68106,1499757997,297523975,0,252,354,163,107,102,111,270,432
2017/07/11/15:26:37.319440,68107,1499757997,319314002,0,240,340,167,106,97,120,280,469
2017/07/11/15:26:37.342215,68108,1499757997,342042922,0,231,296,150,95,91,113,249,409
2017/07/11/15:26:37.359623,68109,1499757997,358421087,0,207,274,167,94,89,113,220,391
2017/07/11/15:26:37.379364,68110,1499757997,379231929,0,235,322,171,91,89,123,267,465
2017/07/11/15:26:37.402485,68111,1499757997,402234077,0,245,406,200,93,101,142,275,484
2017/07/11/15:26:37.424921,68112,1499757997,424592971,0,241,412,191,98,106,142,281,495
2017/07/11/15:26:37.439462,68113,1499757997,439328908,0,255,480,219,98,115,152,286,516
2017/07/11/15:26:37.471781,68114,1499757997,470427036,0,267,472,201,97,115,147,293,555
2017/07/11/15:26:37.487008,68115,1499757997,486799955,0,249,422,191,106,119,155,327,538
2017/07/11/15:26:37.499378,68116,1499757997,499260902,0,254,372,163,127,145,185,315,554
2017/07/11/15:26:37.522734,68117,1499757997,522537946,0,271,372,182,130,147,199,408,638
2017/07/11/15:26:37.545281,68118,1499757997,544935941,0,267,326,157,135,145,198,421,637
2017/07/11/15:26:37.559915,68119,1499757997,559685945,0,264,349,160,132,144,208,419,661
2017/07/11/15:26:37.581939,68120,1499757997,581758975,0,286,367,164,146,157,198,381,632
2017/07/11/15:26:37.604717,68121,1499757997,604523897,0,263,346,157,125,127,164,402,605
2017/07/11/15:26:37.619960,68122,1499757997,619784116,0,253,359,139,114,119,142,286,474
2017/07/11/15:26:37.650495,68123,1499757997,650242090,0,272,334,139,119,121,162,307,530
2017/07/11/15:26:37.664826,68124,1499757997,664592981,0,281,308,135,124,124,150,304,473
2017/07/11/15:26:37.679549,68125,1499757997,679354906,0,264,319,145,105,103,144,283,485
2017/07/11/15:26:37.702085,68126,1499757997,701875925,0,263,323,183,112,107,155,287,473
2017/07/11/15:26:37.733613,68127,1499757997,732711076,0,245,304,188,125,112,156,295,463
2017/07/11/15:26:37.739893,68128,1499757997,739689111,0,221,319,182,117,108,127,258,433
2017/07/11/15:26:37.762061,68129,1499757997,761852979,0,214,376,208,127,111,126,254,443
2017/07/11/15:26:37.784846,68130,1499757997,784584999,0,203,370,207,126,108,126,257,441
2017/07/11/15:26:37.800182,68131,1499757997,799263000,0,184,348,176,117,96,103,244,435
2017/07/11/15:26:37.822317,68132,1499757997,822026968,0,181,339,161,109,95,105,210,435
2017/07/11/15:26:37.844608,68133,1499757997,844345092,0,183,328,153,103,89,104,210,401
2017/07/11/15:26:37.859472,68134,1499757997,859275102,0,168,265,121,81,75,105,214,396
2017/07/11/15:26:37.882190,68135,1499757997,881902933,0,178,247,101,84,80,115,251,458
2017/07/11/15:26:37.904516,68136,1499757997,904309988,0,175,274,95,76,78,116,232,452
2017/07/11/15:26:37.919509,68137,1499757997,919378042,0,183,280,119,64,65,114,247,465
2017/07/11/15:26:37.941919,68138,1499757997,941818952,0,179,249,121,64,62,113,236,441
2017/07/11/15:26:37.964686,68139,1499757997,964472055,0,172,235,115,72,66,109,236,441
2017/07/11/15:26:37.979597,68140,1499757997,979435920,0,158,248,119,65,68,99,205,365
2017/07/11/15:26:38.003065,68141,1499757998,2036094,0,152,221,125,64,64,74,207,379
2017/07/11/15:26:38.024451,68142,1499757998,24295091,0,140,210,103,62,64,67,190,376
2017/07/11/15:26:38.043472,68143,1499757998,43184995,0,143,191,96,67,71,78,200,423
2017/07/11/15:26:38.062274,68144,1499757998,61949014,0,151,197,94,68,72,82,215,421
2017/07/11/15:26:38.084759,68145,1499757998,84630012,0,149,224,109,69,63,76,206,443
2017/07/11/15:26:38.099457,68146,1499757998,99268913,0,166,246,132,80,71,104,247,443
2017/07/11/15:26:38.122442,68147,1499757998,122195005,0,164,247,142,79,69,116,255,426
2017/07/11/15:26:38.144466,68148,1499757998,144313097,0,160,256,140,74,64,114,255,402
2017/07/11/15:26:38.159439,68149,1499757998,159339904,0,182,261,137,66,66,124,285,399
2017/07/11/15:26:38.190351,68150,1499757998,190126895,0,188,267,142,78,75,134,292,352
2017/07/11/15:26:38.204496,68151,1499757998,204327106,0,183,263,125,71,70,116,271,387
2017/07/11/15:26:38.219398,68152,1499757998,219239950,0,193,260,112,71,70,108,263,388
2017/07/11/15:26:38.242296,68153,1499757998,241983890,0,193,257,108,72,69,101,257,364
2017/07/11/15:26:38.264889,68154,1499757998,264724016,0,161,244,107,72,63,91,218,351
2017/07/11/15:26:38.279532,68155,1499757998,279417991,0,164,222,89,60,55,86,210,368
2017/07/11/15:26:38.302413,68156,1499757998,302108049,0,172,207,88,65,61,98,225,297
2017/07/11/15:26:38.324854,68157,1499757998,324490070,0,159,226,97,69,65,104,228,287
2017/07/11/15:26:38.339417,68158,1499757998,339273929,0,150,217,95,67,65,109,243,286
2017/07/11/15:26:38.362004,68159,1499757998,361816883,0,163,256,103,70,67,113,284,318
2017/07/11/15:26:38.385131,68160,1499757998,384726047,0,153,263,100,64,63,120,285,296
2017/07/11/15:26:38.406986,68161,1499757998,406855106,0,153,271,94,59,56,110,255,386
2017/07/11/15:26:38.423046,68162,1499757998,422776937,0,153,269,89,59,56,105,246,397
2017/07/11/15:26:38.445028,68163,1499757998,444636106,0,178,274,98,58,55,108,265,404
2017/07/11/15:26:38.467435,68164,1499757998,467273950,0,167,240,90,55,55,108,238,381
2017/07/11/15:26:38.482003,68165,1499757998,481831073,0,198,289,105,67,66,98,263,437
2017/07/11/15:26:38.504829,68166,1499757998,504545927,0,180,327,115,66,66,97,278,436
2017/07/11/15:26:38.527492,68167,1499757998,527287960,0,203,331,118,67,68,91,289,440
2017/07/11/15:26:38.541949,68168,1499757998,541798114,0,181,329,114,73,69,84,264,456
2017/07/11/15:26:38.564821,68169,1499757998,564627885,0,183,328,117,73,69,75,241,468
2017/07/11/15:26:38.587057,68170,1499757998,586942911,0,150,259,97,65,60,72,224,432
2017/07/11/15:26:38.602017,68171,1499757998,601871967,0,151,251,111,66,63,98,219,359
2017/07/11/15:26:38.624433,68172,1499757998,624264001,0,143,246,105,61,56,99,237,350
2017/07/11/15:26:38.647483,68173,1499757998,647294998,0,141,252,101,55,54,100,245,326
2017/07/11/15:26:38.662359,68174,1499757998,662029981,0,141,249,101,61,62,105,244,299
2017/07/11/15:26:38.684515,68175,1499757998,684314966,0,151,287,117,59,60,101,228,280
