time,.header.seq,.header.stamp.secs,.header.stamp.nsecs,.header.frame_id,.quat0,.quat1,.quat2,.quat3,.acc0,.acc1,.acc2
2017/07/11/15:25:33.870468,63635,1499757933,870192050,0,6134,5677,7626,11849,330,1982,656
2017/07/11/15:25:33.884376,63636,1499757933,884234905,0,6135,5707,7563,11874,355,1766,663
2017/07/11/15:25:33.907231,63637,1499757933,907053947,0,6133,5735,7525,11886,328,1620,715
2017/07/11/15:25:33.931288,63638,1499757933,930284976,0,6118,5775,7525,11874,334,1744,684
2017/07/11/15:25:33.944715,63639,1499757933,944436073,0,6117,5805,7514,11867,412,1867,609
2017/07/11/15:25:33.967204,63640,1499757933,966970920,0,6132,5813,7474,11880,456,1737,619
2017/07/11/15:25:33.991771,63641,1499757933,991655111,0,6144,5818,7459,11882,397,1695,657
2017/07/11/15:25:34.005885,63642,1499757934,5682945,0,6154,5833,7467,11864,380,1838,674
2017/07/11/15:25:34.027370,63643,1499757934,27017116,0,6170,5841,7474,11847,382,1891,648
2017/07/11/15:25:34.049563,63644,1499757934,49292087,0,6202,5834,7476,11833,368,1793,675
2017/07/11/15:25:34.066767,63645,1499757934,66540956,0,6226,5828,7497,11810,555,1671,745
2017/07/11/15:25:34.087452,63646,1499757934,87209939,0,6252,5804,7539,11782,408,1817,672
2017/07/11/15:25:34.109793,63647,1499757934,109498977,0,6276,5763,7593,11754,351,1870,656
2017/07/11/15:25:34.124469,63648,1499757934,124274015,0,6310,5706,7650,11726,248,1879,636
2017/07/11/15:25:34.146908,63649,1499757934,146740913,0,6347,5645,7696,11706,290,1940,635
2017/07/11/15:25:34.174829,63650,1499757934,172704935,0,6380,5572,7728,11701,342,1982,653
2017/07/11/15:25:34.184647,63651,1499757934,184401035,0,6400,5487,7747,11719,293,1934,686
2017/07/11/15:25:34.207036,63652,1499757934,206898927,0,6428,5391,7783,11724,81,2002,628
2017/07/11/15:25:34.229605,63653,1499757934,229392051,0,6461,5314,7827,11712,107,2138,572
2017/07/11/15:25:34.244576,63654,1499757934,244379043,0,6515,5226,7882,11684,20,1954,574
2017/07/11/15:25:34.266910,63655,1499757934,266767978,0,6540,5150,7929,11672,166,1920,717
2017/07/11/15:25:34.289544,63656,1499757934,289314985,0,6569,5069,7998,11644,26,1947,657
2017/07/11/15:25:34.305021,63657,1499757934,304619073,0,6612,4972,8061,11619,-33,2015,674
2017/07/11/15:25:34.326918,63658,1499757934,326750040,0,6665,4875,8122,11587,-52,1946,633
2017/07/11/15:25:34.350187,63659,1499757934,349838972,0,6715,4780,8188,11551,-92,1838,642
2017/07/11/15:25:34.366030,63660,1499757934,365731954,0,6760,4690,8263,11508,-65,1870,656
2017/07/11/15:25:34.386902,63661,1499757934,386750936,0,6814,4587,8338,11464,-146,1928,641
2017/07/11/15:25:34.409430,63662,1499757934,409259080,0,6869,4482,8403,11425,-152,1862,637
2017/07/11/15:25:34.424552,63663,1499757934,424319028,0,6922,4374,8466,11387,-170,1811,653
2017/07/11/15:25:34.447515,63664,1499757934,447243928,0,6970,4272,8536,11345,-235,1781,637
2017/07/11/15:25:34.469358,63665,1499757934,469228029,0,7016,4178,8617,11291,-246,1847,599
2017/07/11/15:25:34.484866,63666,1499757934,484599113,0,7066,4077,8679,11248,-245,1888,651
2017/07/11/15:25:34.507172,63667,1499757934,507008075,0,7113,3968,8731,11217,-288,1797,646
2017/07/11/15:25:34.529619,63668,1499757934,529362916,0,7156,3865,8790,11180,-348,1749,637
2017/07/11/15:25:34.544878,63669,1499757934,544620037,0,7198,3771,8862,11128,-371,1825,621
2017/07/11/15:25:34.567554,63670,1499757934,567205905,0,7241,3674,8930,11078,-410,1901,612
2017/07/11/15:25:34.590735,63671,1499757934,590573072,0,7282,3568,8977,11048,-424,1856,639
2017/07/11/15:25:34.604394,63672,1499757934,604202985,0,7322,3462,9028,11013,-486,1780,633
2017/07/11/15:25:34.627345,63673,1499757934,627137899,0,7369,3360,9093,10960,-562,1816,616
2017/07/11/15:25:34.649552,63674,1499757934,649344921,0,7415,3259,9155,10909,-559,1899,592
2017/07/11/15:25:34.664663,63675,1499757934,664324045,0,7466,3149,9197,10870,-572,1928,598
2017/07/11/15:25:34.687006,63676,1499757934,686850070,0,7517,3027,9234,10839,-632,1758,595
2017/07/11/15:25:34.717553,63677,1499757934,717446088,0,7568,2916,9282,10792,-647,1806,580
2017/07/11/15:25:34.724439,63678,1499757934,724287033,0,7618,2812,9336,10738,-703,1896,607
2017/07/11/15:25:34.747053,63679,1499757934,746867895,0,7671,2707,9373,10696,-699,1906,607
2017/07/11/15:25:34.770478,63680,1499757934,769234895,0,7726,2592,9396,10663,-722,1807,587
2017/07/11/15:25:34.784695,63681,1499757934,784481048,0,7787,2486,9427,10617,-736,1710,587
2017/07/11/15:25:34.807317,63682,1499757934,807159900,0,7845,2389,9473,10555,-758,1783,573
2017/07/11/15:25:34.830696,63683,1499757934,829670906,0,7904,2294,9503,10506,-773,1832,618
2017/07/11/15:25:34.845100,63684,1499757934,844500064,0,7962,2190,9519,10469,-793,1775,592
2017/07/11/15:25:34.867021,63685,1499757934,866754055,0,8022,2084,9528,10436,-871,1745,584
2017/07/11/15:25:34.890457,63686,1499757934,889861106,0,8086,1987,9540,10395,-906,1690,570
2017/07/11/15:25:34.904652,63687,1499757934,904388904,0,8149,1906,9553,10349,-876,1715,562
2017/07/11/15:25:34.927139,63688,1499757934,926875114,0,8209,1829,9560,10309,-874,1752,586
2017/07/11/15:25:34.949704,63689,1499757934,949505090,0,8269,1742,9549,10287,-901,1641,617
2017/07/11/15:25:34.972030,63690,1499757934,971839904,0,8331,1657,9542,10257,-945,1605,624
2017/07/11/15:25:34.986917,63691,1499757934,986756086,0,8394,1580,9538,10221,-988,1646,602
2017/07/11/15:25:35.009592,63692,1499757935,9393930,0,8459,1505,9523,10193,-995,1692,574
2017/07/11/15:25:35.032001,63693,1499757935,31791925,0,8519,1424,9487,10189,-925,1578,612
2017/07/11/15:25:35.046839,63694,1499757935,46729087,0,8582,1345,9454,10177,-995,1482,631
2017/07/11/15:25:35.069657,63695,1499757935,69463014,0,8656,1277,9433,10142,-1068,1560,616
2017/07/11/15:25:35.092252,63696,1499757935,91993093,0,8726,1223,9397,10122,-968,1691,687
2017/07/11/15:25:35.107206,63697,1499757935,107050895,0,8787,1153,9334,10136,-930,1581,675
2017/07/11/15:25:35.130296,63698,1499757935,129479885,0,8856,1061,9261,10153,-1051,1423,671
2017/07/11/15:25:35.152592,63699,1499757935,152302026,0,8933,979,9202,10148,-1178,1387,647
2017/07/11/15:25:35.166904,63700,1499757935,166796922,0,9015,928,9147,10130,-1102,1479,756
2017/07/11/15:25:35.189812,63701,1499757935,189548969,0,9090,887,9080,10127,-987,1616,763
2017/07/11/15:25:35.212169,63702,1499757935,211884975,0,9161,822,8988,10150,-1012,1528,802
2017/07/11/15:25:35.227933,63703,1499757935,227632999,0,9244,743,8893,10165,-1170,1363,726
2017/07/11/15:25:35.250013,63704,1499757935,249793052,0,9328,696,8804,10168,-1072,1303,795
2017/07/11/15:25:35.272740,63705,1499757935,272434949,0,9396,670,8726,10175,-980,1410,825
2017/07/11/15:25:35.288427,63706,1499757935,288260936,0,9453,626,8636,10202,-1018,1427,860
2017/07/11/15:25:35.309597,63707,1499757935,309319019,0,9520,561,8526,10235,-1136,1286,867
2017/07/11/15:25:35.332075,63708,1499757935,331923961,0,9597,515,8426,10249,-1161,1213,907
2017/07/11/15:25:35.347219,63709,1499757935,346988916,0,9658,502,8340,10263,-1019,1423,938
2017/07/11/15:25:35.369874,63710,1499757935,369494915,0,9704,460,8233,10308,-1043,1328,981
2017/07/11/15:25:35.391986,63711,1499757935,391870021,0,9766,399,8118,10342,-1169,1171,1019
2017/07/11/15:25:35.407135,63712,1499757935,406965017,0,9842,361,8013,10354,-1143,1176,1044
2017/07/11/15:25:35.429413,63713,1499757935,429245948,0,9897,352,7925,10370,-1010,1366,1061
2017/07/11/15:25:35.452613,63714,1499757935,452308893,0,9937,316,7816,10415,-994,1340,1077
2017/07/11/15:25:35.467203,63715,1499757935,466898918,0,9994,245,7687,10459,-1076,1106,1109
2017/07/11/15:25:35.489541,63716,1499757935,489370107,0,10065,191,7561,10484,-1054,1028,1179
2017/07/11/15:25:35.511837,63717,1499757935,511709928,0,10126,170,7462,10496,-1050,1197,1147
2017/07/11/15:25:35.527708,63718,1499757935,527282953,0,10169,148,7356,10529,-908,1302,1154
2017/07/11/15:25:35.549822,63719,1499757935,549639940,0,10213,82,7233,10572,-1030,1052,1216
2017/07/11/15:25:35.572191,63720,1499757935,571994066,0,10272,26,7113,10597,-1146,969,1224
2017/07/11/15:25:35.595279,63721,1499757935,595001935,0,10331,-3,7003,10613,-1085,1131,1242
2017/07/11/15:25:35.609677,63722,1499757935,609414100,0,10375,-26,6895,10641,-993,1159,1262
2017/07/11/15:25:35.631999,63723,1499757935,631799936,0,10417,-66,6779,10674,-1015,1077,1285
2017/07/11/15:25:35.646824,63724,1499757935,646698951,0,10471,-111,6643,10706,-1081,913,1318
2017/07/11/15:25:35.669579,63725,1499757935,669354915,0,10527,-128,6508,10734,-999,946,1371
2017/07/11/15:25:35.691913,63726,1499757935,691755056,0,10562,-134,6401,10763,-857,1062,1337
2017/07/11/15:25:35.706949,63727,1499757935,706829071,0,10588,-171,6297,10799,-1001,1046,1343
2017/07/11/15:25:35.729454,63728,1499757935,729250907,0,10626,-215,6169,10834,-989,778,1366
2017/07/11/15:25:35.752231,63729,1499757935,752034902,0,10664,-226,6066,10855,-938,849,1423
2017/07/11/15:25:35.766942,63730,1499757935,766772985,0,10690,-234,5978,10878,-957,994,1483
2017/07/11/15:25:35.789738,63731,1499757935,789433002,0,10714,-255,5893,10901,-989,934,1462
2017/07/11/15:25:35.812066,63732,1499757935,811835050,0,10742,-266,5809,10918,-956,948,1505
2017/07/11/15:25:35.827471,63733,1499757935,827161073,0,10771,-276,5720,10937,-912,888,1540
2017/07/11/15:25:35.849501,63734,1499757935,849262952,0,10792,-285,5640,10957,-905,912,1543
2017/07/11/15:25:35.875200,63735,1499757935,874927997,0,10813,-310,5556,10979,-931,818,1543
2017/07/11/15:25:35.887057,63736,1499757935,886806011,0,10841,-332,5476,10990,-891,788,1610
2017/07/11/15:25:35.909723,63737,1499757935,909431934,0,10866,-331,5416,10995,-877,818,1601
2017/07/11/15:25:35.932662,63738,1499757935,931776046,0,10882,-325,5370,11002,-820,926,1596
2017/07/11/15:25:35.946932,63739,1499757935,946753978,0,10892,-343,5315,11018,-821,814,1597
2017/07/11/15:25:35.970841,63740,1499757935,970689058,0,10908,-379,5255,11030,-852,709,1642
2017/07/11/15:25:35.992372,63741,1499757935,992084026,0,10922,-404,5206,11039,-886,600,1639
2017/07/11/15:25:36.009470,63742,1499757936,8928060,0,10928,-401,5198,11037,-838,793,1576
2017/07/11/15:25:36.034199,63743,1499757936,30584096,0,10928,-421,5178,11046,-810,848,1637
2017/07/11/15:25:36.052257,63744,1499757936,51964044,0,10932,-472,5147,11054,-961,633,1717
2017/07/11/15:25:36.066984,63745,1499757936,66817998,0,10931,-496,5141,11056,-980,672,1719
2017/07/11/15:25:36.089677,63746,1499757936,89417934,0,10929,-506,5151,11053,-934,838,1618
2017/07/11/15:25:36.112153,63747,1499757936,111943006,0,10926,-532,5141,11060,-974,746,1624
2017/07/11/15:25:36.127296,63748,1499757936,127135038,0,10925,-561,5127,11065,-936,689,1651
2017/07/11/15:25:36.149452,63749,1499757936,149274110,0,10922,-583,5122,11070,-849,647,1601
2017/07/11/15:25:36.171916,63750,1499757936,171736955,0,10917,-592,5139,11066,-896,765,1557
2017/07/11/15:25:36.187192,63751,1499757936,186958074,0,10913,-600,5151,11064,-921,796,1563
2017/07/11/15:25:36.211365,63752,1499757936,210676908,0,10910,-622,5158,11063,-944,710,1627
2017/07/11/15:25:36.233094,63753,1499757936,232935905,0,10907,-644,5151,11068,-889,592,1570
2017/07/11/15:25:36.247164,63754,1499757936,246989011,0,10907,-643,5155,11066,-891,645,1505
2017/07/11/15:25:36.269693,63755,1499757936,269548892,0,10900,-638,5169,11067,-908,763,1546
2017/07/11/15:25:36.292083,63756,1499757936,291884899,0,10889,-646,5172,11076,-877,719,1580
2017/07/11/15:25:36.308500,63757,1499757936,308259963,0,10878,-671,5173,11084,-916,662,1657
2017/07/11/15:25:36.329408,63758,1499757936,329236030,0,10873,-699,5185,11082,-1006,614,1539
2017/07/11/15:25:36.352197,63759,1499757936,351995944,0,10867,-695,5201,11081,-968,691,1544
2017/07/11/15:25:36.367178,63760,1499757936,366914987,0,10853,-686,5221,11086,-987,861,1553
2017/07/11/15:25:36.398588,63761,1499757936,397741079,0,10841,-712,5208,11102,-773,577,1466
2017/07/11/15:25:36.411849,63762,1499757936,411734104,0,10834,-731,5202,11110,-1044,734,1503
2017/07/11/15:25:36.427304,63763,1499757936,427110910,0,10839,-735,5189,11111,-1035,673,1592
2017/07/11/15:25:36.449635,63764,1499757936,449485063,0,10832,-703,5211,11109,-1018,796,1576
2017/07/11/15:25:36.471911,63765,1499757936,471724033,0,10819,-686,5219,11120,-789,805,1538
2017/07/11/15:25:36.487307,63766,1499757936,487080097,0,10812,-715,5206,11131,-967,691,1638
2017/07/11/15:25:36.517929,63767,1499757936,517591953,0,10816,-737,5210,11124,-1239,637,1600
2017/07/11/15:25:36.532037,63768,1499757936,531852960,0,10815,-706,5216,11123,-955,846,1596
2017/07/11/15:25:36.548399,63769,1499757936,548031091,0,10813,-699,5207,11131,-863,817,1626
2017/07/11/15:25:36.569323,63770,1499757936,569221019,0,10805,-724,5198,11141,-979,623,1647
2017/07/11/15:25:36.592001,63771,1499757936,591861963,0,10802,-736,5205,11140,-995,676,1630
2017/07/11/15:25:36.614519,63772,1499757936,614408969,0,10798,-729,5225,11134,-995,766,1540
2017/07/11/15:25:36.629597,63773,1499757936,629434108,0,10793,-722,5232,11137,-935,848,1599
2017/07/11/15:25:36.652070,63774,1499757936,651889085,0,10788,-733,5235,11140,-944,702,1615
2017/07/11/15:25:36.675228,63775,1499757936,674993991,0,10783,-732,5257,11134,-982,686,1567
2017/07/11/15:25:36.689837,63776,1499757936,689642906,0,10779,-720,5289,11123,-1028,825,1577
2017/07/11/15:25:36.711985,63777,1499757936,711802005,0,10776,-715,5303,11121,-1047,757,1527
2017/07/11/15:25:36.734476,63778,1499757936,734303951,0,10778,-699,5302,11119,-934,687,1577
2017/07/11/15:25:36.749576,63779,1499757936,749413013,0,10779,-672,5324,11110,-952,832,1584
2017/07/11/15:25:36.772768,63780,1499757936,772290945,0,10776,-661,5339,11106,-982,860,1577
2017/07/11/15:25:36.794365,63781,1499757936,794246912,0,10780,-664,5331,11106,-998,677,1594
2017/07/11/15:25:36.810180,63782,1499757936,809633016,0,10787,-649,5338,11097,-969,678,1497
2017/07/11/15:25:36.832068,63783,1499757936,831882953,0,10788,-632,5341,11096,-807,850,1540
2017/07/11/15:25:36.854482,63784,1499757936,854274034,0,10787,-658,5329,11100,-988,737,1586
2017/07/11/15:25:36.869488,63785,1499757936,869322061,0,10795,-674,5329,11092,-1054,655,1616
2017/07/11/15:25:36.892070,63786,1499757936,891885042,0,10800,-651,5345,11080,-993,802,1562
2017/07/11/15:25:36.915050,63787,1499757936,914864063,0,10797,-638,5338,11087,-822,823,1567
2017/07/11/15:25:36.929498,63788,1499757936,929356098,0,10793,-658,5335,11092,-977,644,1522
2017/07/11/15:25:36.952230,63789,1499757936,952019929,0,10793,-664,5358,11080,-1100,705,1512
2017/07/11/15:25:36.975231,63790,1499757936,974762916,0,10796,-647,5378,11069,-1004,855,1472
2017/07/11/15:25:36.989437,63791,1499757936,989260911,0,10796,-640,5366,11075,-895,846,1524
2017/07/11/15:25:37.013023,63792,1499757937,12253046,0,10795,-651,5348,11083,-955,733,1589
2017/07/11/15:25:37.037067,63793,1499757937,36860942,0,10795,-646,5350,11083,-967,698,1623
2017/07/11/15:25:37.049480,63794,1499757937,49299955,0,10794,-628,5363,11079,-982,826,1625
2017/07/11/15:25:37.075200,63795,1499757937,75012922,0,10792,-618,5367,11079,-930,809,1523
2017/07/11/15:25:37.094671,63796,1499757937,94482898,0,10793,-615,5366,11080,-884,792,1553
