time,.header.seq,.header.stamp.secs,.header.stamp.nsecs,.header.frame_id,.quat0,.quat1,.quat2,.quat3,.acc0,.acc1,.acc2
2017/07/11/16:20:14.196651,227373,1499761214,196188926,0,2833,4197,9646,12236,410,1829,319
2017/07/11/16:20:14.211036,227374,1499761214,210689067,0,2825,4203,9650,12233,341,2043,283
2017/07/11/16:20:14.233894,227375,1499761214,233560085,0,2831,4204,9616,12258,374,1986,319
2017/07/11/16:20:14.248770,227376,1499761214,248615026,0,2844,4197,9552,12307,377,1840,366
2017/07/11/16:20:14.271172,227377,1499761214,270895004,0,2859,4191,9497,12348,360,1796,420
2017/07/11/16:20:14.293534,227378,1499761214,293209075,0,2870,4192,9467,12369,383,1772,411
2017/07/11/16:20:14.309107,227379,1499761214,308943033,0,2884,4189,9448,12380,354,1890,396
2017/07/11/16:20:14.348430,227380,1499761214,348229885,0,2904,4178,9413,12407,383,1937,408
2017/07/11/16:20:14.355254,227381,1499761214,355016946,0,2917,4163,9368,12443,378,1802,453
2017/07/11/16:20:14.368536,227382,1499761214,368346929,0,2928,4163,9344,12458,360,1773,448
2017/07/11/16:20:14.390996,227383,1499761214,390778064,0,2926,4173,9348,12452,437,1823,412
2017/07/11/16:20:14.413575,227384,1499761214,413351058,0,2931,4169,9343,12456,405,1950,445
2017/07/11/16:20:14.428225,227385,1499761214,428102016,0,2926,4159,9328,12471,442,1805,459
2017/07/11/16:20:14.451485,227386,1499761214,451128005,0,2927,4142,9324,12479,432,1817,441
2017/07/11/16:20:14.474051,227387,1499761214,473592042,0,2933,4119,9335,12478,395,1830,456
2017/07/11/16:20:14.488684,227388,1499761214,488455057,0,2934,4101,9357,12467,416,1894,388
2017/07/11/16:20:14.510968,227389,1499761214,510767936,0,2933,4077,9381,12457,402,1965,370
2017/07/11/16:20:14.533864,227390,1499761214,533554077,0,2934,4043,9393,12458,381,1964,440
2017/07/11/16:20:14.556046,227391,1499761214,555840015,0,2919,3997,9396,12475,514,1826,539
2017/07/11/16:20:14.571381,227392,1499761214,570996999,0,2909,3936,9414,12483,328,1892,417
2017/07/11/16:20:14.593424,227393,1499761214,593127012,0,2907,3857,9461,12472,306,2013,466
2017/07/11/16:20:14.614554,227394,1499761214,609946966,0,2907,3774,9523,12451,242,2080,479
2017/07/11/16:20:14.631185,227395,1499761214,630944967,0,2891,3674,9568,12450,301,2131,539
2017/07/11/16:20:14.653761,227396,1499761214,653588056,0,2866,3548,9593,12473,319,2163,531
2017/07/11/16:20:14.668429,227397,1499761214,668195962,0,2848,3392,9588,12524,155,2280,575
2017/07/11/16:20:14.690717,227398,1499761214,690557956,0,2859,3224,9613,12547,13,2041,473
2017/07/11/16:20:14.713802,227399,1499761214,713356971,0,2872,3044,9663,12551,89,2006,558
2017/07/11/16:20:14.729206,227400,1499761214,728605985,0,2890,2847,9752,12524,-73,2145,525
2017/07/11/16:20:14.751022,227401,1499761214,750802993,0,2912,2631,9833,12503,-69,2247,543
2017/07/11/16:20:14.773403,227402,1499761214,773221015,0,2941,2410,9895,12492,-151,2159,460
2017/07/11/16:20:14.788995,227403,1499761214,788805961,0,2970,2187,9958,12476,-146,2033,442
2017/07/11/16:20:14.811401,227404,1499761214,810961961,0,3011,1966,10045,12433,-270,2001,419
2017/07/11/16:20:14.833225,227405,1499761214,833091974,0,3058,1750,10141,12376,-256,2039,433
2017/07/11/16:20:14.848282,227406,1499761214,848081111,0,3094,1540,10224,12326,-249,2046,428
2017/07/11/16:20:14.871114,227407,1499761214,870878934,0,3129,1330,10307,12273,-327,1988,384
2017/07/11/16:20:14.893671,227408,1499761214,893471956,0,3182,1122,10389,12211,-399,1945,356
2017/07/11/16:20:14.909157,227409,1499761214,908782958,0,3246,927,10466,12144,-393,1944,357
2017/07/11/16:20:14.931098,227410,1499761214,930886030,0,3308,742,10544,12072,-434,1927,338
2017/07/11/16:20:14.953901,227411,1499761214,953555107,0,3359,561,10611,12009,-409,1940,354
2017/07/11/16:20:14.976035,227412,1499761214,975781917,0,3412,378,10670,11949,-515,1885,325
2017/07/11/16:20:14.991455,227413,1499761214,991156101,0,3469,201,10732,11881,-590,1857,286
2017/07/11/16:20:15.013398,227414,1499761215,13180017,0,3539,32,10795,11805,-654,1879,257
2017/07/11/16:20:15.037255,227415,1499761215,36231040,0,3611,-127,10852,11730,-635,1836,278
2017/07/11/16:20:15.051015,227416,1499761215,50726890,0,3676,-278,10899,11663,-650,1818,250
2017/07/11/16:20:15.075610,227417,1499761215,75350046,0,3748,-425,10944,11594,-756,1831,203
2017/07/11/16:20:15.095771,227418,1499761215,95578908,0,3819,-563,10986,11524,-766,1859,182
2017/07/11/16:20:15.110740,227419,1499761215,110564947,0,3881,-697,11012,11471,-735,1868,218
2017/07/11/16:20:15.133576,227420,1499761215,133272886,0,3939,-832,11016,11439,-805,1782,198
2017/07/11/16:20:15.156381,227421,1499761215,156060934,0,4012,-971,11016,11402,-871,1732,173
2017/07/11/16:20:15.171512,227422,1499761215,171010017,0,4096,-1101,11022,11355,-910,1722,158
2017/07/11/16:20:15.193649,227423,1499761215,193366050,0,4175,-1214,11032,11305,-907,1767,153
2017/07/11/16:20:15.216148,227424,1499761215,215828895,0,4240,-1323,11028,11273,-890,1806,180
2017/07/11/16:20:15.231074,227425,1499761215,230844020,0,4304,-1436,11009,11253,-983,1711,122
2017/07/11/16:20:15.253286,227426,1499761215,253144979,0,4390,-1548,10993,11221,-1054,1659,98
2017/07/11/16:20:15.275949,227427,1499761215,275738000,0,4473,-1648,10971,11195,-1030,1703,140
2017/07/11/16:20:15.291221,227428,1499761215,290982007,0,4538,-1728,10943,11184,-981,1698,166
2017/07/11/16:20:15.313457,227429,1499761215,313240051,0,4600,-1813,10899,11188,-1044,1677,193
2017/07/11/16:20:15.336455,227430,1499761215,336108922,0,4678,-1894,10851,11189,-1152,1620,152
2017/07/11/16:20:15.351225,227431,1499761215,351017951,0,4769,-1962,10803,11185,-1175,1626,159
2017/07/11/16:20:15.373622,227432,1499761215,373368024,0,4844,-2010,10748,11198,-1054,1595,195
2017/07/11/16:20:15.397941,227433,1499761215,395689010,0,4909,-2050,10691,11217,-1074,1596,205
2017/07/11/16:20:15.411228,227434,1499761215,411034107,0,4977,-2091,10627,11240,-1114,1613,236
2017/07/11/16:20:15.433195,227435,1499761215,433053970,0,5059,-2128,10544,11274,-1183,1567,223
2017/07/11/16:20:15.456353,227436,1499761215,456094980,0,5150,-2153,10452,11314,-1166,1511,261
2017/07/11/16:20:15.473388,227437,1499761215,472945928,0,5229,-2159,10372,11350,-1126,1475,337
2017/07/11/16:20:15.496490,227438,1499761215,493854045,0,5293,-2152,10299,11388,-1117,1599,327
2017/07/11/16:20:15.515932,227439,1499761215,515655040,0,5355,-2152,10208,11441,-1180,1607,291
2017/07/11/16:20:15.536122,227440,1499761215,535936117,0,5437,-2151,10097,11501,-1285,1463,321
2017/07/11/16:20:15.553598,227441,1499761215,553384065,0,5525,-2127,9996,11552,-1156,1387,457
2017/07/11/16:20:15.592694,227442,1499761215,592495918,0,5596,-2087,9922,11589,-1062,1461,445
2017/07/11/16:20:15.594188,227443,1499761215,594074010,0,5651,-2050,9849,11631,-1122,1699,424
2017/07/11/16:20:15.613627,227444,1499761215,613387107,0,5710,-2031,9730,11705,-1210,1594,449
2017/07/11/16:20:15.636300,227445,1499761215,635881900,0,5793,-2011,9601,11774,-1270,1361,521
2017/07/11/16:20:15.650953,227446,1499761215,650752067,0,5859,-1966,9498,11832,-1040,1432,626
2017/07/11/16:20:15.673815,227447,1499761215,673547983,0,5900,-1923,9407,11892,-1067,1610,632
2017/07/11/16:20:15.695938,227448,1499761215,695703983,0,5946,-1905,9288,11965,-1239,1533,615
2017/07/11/16:20:15.711552,227449,1499761215,711066961,0,6023,-1880,9154,12033,-1289,1304,636
2017/07/11/16:20:15.734208,227450,1499761215,733997106,0,6088,-1818,9040,12096,-919,1356,776
2017/07/11/16:20:15.756075,227451,1499761215,755753993,0,6128,-1763,8949,12152,-950,1465,784
2017/07/11/16:20:15.770712,227452,1499761215,770518064,0,6159,-1729,8846,12216,-1038,1526,722
2017/07/11/16:20:15.795228,227453,1499761215,794914007,0,6205,-1704,8719,12287,-1100,1346,773
2017/07/11/16:20:15.816501,227454,1499761215,816171884,0,6260,-1654,8614,12341,-1011,1267,853
2017/07/11/16:20:15.831486,227455,1499761215,831063985,0,6305,-1596,8546,12372,-952,1339,879
2017/07/11/16:20:15.853522,227456,1499761215,853358030,0,6334,-1545,8470,12416,-938,1509,899
2017/07/11/16:20:15.876982,227457,1499761215,876800060,0,6357,-1518,8369,12476,-1051,1488,893
2017/07/11/16:20:15.900015,227458,1499761215,899811983,0,6383,-1488,8256,12542,-1051,1326,940
2017/07/11/16:20:15.913707,227459,1499761215,913382053,0,6404,-1442,8175,12589,-935,1337,970
2017/07/11/16:20:15.937526,227460,1499761215,937316894,0,6414,-1392,8119,12626,-1021,1471,948
2017/07/11/16:20:15.959121,227461,1499761215,958880901,0,6419,-1348,8041,12678,-984,1425,978
2017/07/11/16:20:15.975965,227462,1499761215,975454092,0,6435,-1304,7961,12725,-1027,1302,1025
2017/07/11/16:20:15.996096,227463,1499761215,995858907,0,6445,-1239,7909,12759,-903,1365,1063
2017/07/11/16:20:16.018483,227464,1499761216,18240928,0,6449,-1181,7876,12783,-941,1467,1022
2017/07/11/16:20:16.033766,227465,1499761216,33344030,0,6453,-1128,7829,12814,-926,1465,1033
2017/07/11/16:20:16.057488,227466,1499761216,57195901,0,6465,-1085,7768,12849,-942,1369,1055
2017/07/11/16:20:16.079040,227467,1499761216,78810930,0,6471,-1044,7697,12892,-804,1385,1109
2017/07/11/16:20:16.096049,227468,1499761216,95786094,0,6480,-1032,7607,12942,-889,1308,1156
2017/07/11/16:20:16.116419,227469,1499761216,115945100,0,6502,-1020,7522,12981,-911,1254,1169
2017/07/11/16:20:16.139196,227470,1499761216,138705968,0,6519,-989,7468,13006,-880,1387,1110
2017/07/11/16:20:16.156421,227471,1499761216,155648946,0,6523,-967,7392,13049,-811,1473,1077
2017/07/11/16:20:16.175800,227472,1499761216,175622940,0,6526,-977,7274,13113,-850,1238,1175
2017/07/11/16:20:16.198697,227473,1499761216,198401927,0,6541,-985,7165,13165,-913,1124,1264
2017/07/11/16:20:16.214154,227474,1499761216,213572978,0,6562,-966,7086,13199,-853,1221,1232
2017/07/11/16:20:16.236079,227475,1499761216,235668897,0,6579,-951,7001,13237,-798,1375,1219
2017/07/11/16:20:16.258225,227476,1499761216,258100032,0,6592,-954,6894,13286,-868,1246,1249
2017/07/11/16:20:16.273254,227477,1499761216,273106098,0,6605,-948,6794,13332,-851,1101,1230
2017/07/11/16:20:16.296104,227478,1499761216,295792102,0,6617,-918,6724,13363,-845,1082,1293
2017/07/11/16:20:16.318310,227479,1499761216,318101882,0,6627,-871,6679,13384,-807,1249,1325
2017/07/11/16:20:16.333540,227480,1499761216,333290100,0,6629,-828,6624,13413,-756,1316,1327
2017/07/11/16:20:16.356272,227481,1499761216,355739116,0,6632,-804,6550,13449,-812,1227,1328
2017/07/11/16:20:16.378859,227482,1499761216,378631114,0,6638,-773,6488,13478,-760,1118,1339
2017/07/11/16:20:16.394219,227483,1499761216,393702983,0,6646,-732,6447,13496,-743,1184,1390
2017/07/11/16:20:16.416248,227484,1499761216,415941953,0,6650,-687,6428,13505,-799,1233,1404
2017/07/11/16:20:16.438385,227485,1499761216,438245058,0,6651,-648,6392,13524,-747,1283,1381
2017/07/11/16:20:16.453505,227486,1499761216,453349113,0,6657,-625,6328,13552,-735,1176,1421
2017/07/11/16:20:16.475816,227487,1499761216,475683927,0,6669,-602,6273,13573,-723,1140,1470
2017/07/11/16:20:16.498433,227488,1499761216,498243093,0,6677,-579,6245,13583,-779,1225,1424
2017/07/11/16:20:16.515024,227489,1499761216,514853954,0,6655,-532,6203,13615,-460,1130,1586
2017/07/11/16:20:16.535915,227490,1499761216,535770893,0,6621,-484,6195,13637,-424,1202,1390
2017/07/11/16:20:16.558393,227491,1499761216,558172941,0,6602,-478,6164,13660,-739,1070,1530
2017/07/11/16:20:16.574210,227492,1499761216,573787927,0,6583,-486,6130,13684,-654,833,1516
2017/07/11/16:20:16.595859,227493,1499761216,595671892,0,6566,-473,6161,13679,-806,1404,1363
2017/07/11/16:20:16.618540,227494,1499761216,618396997,0,6548,-477,6150,13693,-774,1398,1356
2017/07/11/16:20:16.635535,227495,1499761216,635313987,0,6527,-486,6111,13719,-698,1061,1412
2017/07/11/16:20:16.656452,227496,1499761216,656073093,0,6516,-471,6103,13729,-685,1052,1433
2017/07/11/16:20:16.678374,227497,1499761216,678172111,0,6497,-440,6116,13733,-636,1277,1474
2017/07/11/16:20:16.703248,227498,1499761216,702636003,0,6477,-432,6118,13742,-644,1385,1473
2017/07/11/16:20:16.716605,227499,1499761216,716072082,0,6464,-440,6098,13757,-690,1166,1472
2017/07/11/16:20:16.738750,227500,1499761216,738466978,0,6455,-438,6091,13764,-642,1134,1431
2017/07/11/16:20:16.753285,227501,1499761216,753144025,0,6443,-429,6094,13769,-626,1244,1435
2017/07/11/16:20:16.776265,227502,1499761216,775968074,0,6432,-433,6079,13781,-669,1215,1468
2017/07/11/16:20:16.799293,227503,1499761216,798795938,0,6429,-445,6064,13788,-731,1191,1491
2017/07/11/16:20:16.813849,227504,1499761216,813529014,0,6420,-442,6066,13791,-710,1229,1452
2017/07/11/16:20:16.836108,227505,1499761216,835846900,0,6413,-429,6062,13797,-661,1199,1404
2017/07/11/16:20:16.858470,227506,1499761216,858345031,0,6412,-415,6052,13802,-638,1159,1422
2017/07/11/16:20:16.873432,227507,1499761216,873188018,0,6411,-401,6046,13806,-588,1217,1466
2017/07/11/16:20:16.897472,227508,1499761216,897361993,0,6410,-404,6041,13808,-690,1189,1418
2017/07/11/16:20:16.918556,227509,1499761216,918312072,0,6411,-396,6041,13808,-712,1211,1390
2017/07/11/16:20:16.933823,227510,1499761216,933532953,0,6416,-379,6036,13808,-633,1241,1466
2017/07/11/16:20:16.959487,227511,1499761216,959115028,0,6419,-371,6023,13813,-652,1211,1458
2017/07/11/16:20:16.978851,227512,1499761216,978583097,0,6424,-362,6015,13814,-624,1176,1459
2017/07/11/16:20:16.993439,227513,1499761216,993288040,0,6433,-352,6009,13813,-608,1182,1472
2017/07/11/16:20:17.016431,227514,1499761217,16110897,0,6439,-338,6018,13806,-673,1207,1419
2017/07/11/16:20:17.039132,227515,1499761217,38630008,0,6441,-318,6026,13802,-586,1240,1428
2017/07/11/16:20:17.054006,227516,1499761217,53749084,0,6443,-313,6016,13806,-584,1191,1476
2017/07/11/16:20:17.075854,227517,1499761217,75665950,0,6450,-321,6004,13808,-667,1109,1528
2017/07/11/16:20:17.098684,227518,1499761217,98500967,0,6457,-314,6019,13798,-700,1225,1476
2017/07/11/16:20:17.121579,227519,1499761217,121074914,0,6459,-304,6027,13794,-605,1272,1437
2017/07/11/16:20:17.135803,227520,1499761217,135642051,0,6462,-314,6022,13795,-663,1157,1447
2017/07/11/16:20:17.158287,227521,1499761217,158056020,0,6473,-316,6028,13787,-638,1102,1490
2017/07/11/16:20:17.181349,227522,1499761217,180886983,0,6481,-309,6047,13775,-643,1244,1457
2017/07/11/16:20:17.196374,227523,1499761217,195981025,0,6486,-314,6046,13773,-656,1235,1478
2017/07/11/16:20:17.218968,227524,1499761217,218348979,0,6492,-323,6044,13771,-669,1153,1450
2017/07/11/16:20:17.241194,227525,1499761217,241023063,0,6498,-328,6047,13766,-621,1155,1433
2017/07/11/16:20:17.255996,227526,1499761217,255785942,0,6507,-333,6046,13762,-649,1158,1453
2017/07/11/16:20:17.283019,227527,1499761217,282529115,0,6513,-334,6050,13758,-643,1203,1458
2017/07/11/16:20:17.302132,227528,1499761217,301687955,0,6516,-340,6056,13754,-669,1208,1447
2017/07/11/16:20:17.316473,227529,1499761217,316010951,0,6521,-348,6057,13751,-652,1129,1426
2017/07/11/16:20:17.350587,227530,1499761217,346638917,0,6529,-350,6068,13742,-673,1172,1440
2017/07/11/16:20:17.362239,227531,1499761217,361453056,0,6535,-347,6084,13732,-671,1191,1429
2017/07/11/16:20:17.376513,227532,1499761217,376077890,0,6536,-339,6097,13726,-619,1238,1390
2017/07/11/16:20:17.398914,227533,1499761217,398619890,0,6537,-348,6092,13727,-641,1173,1452
2017/07/11/16:20:17.420795,227534,1499761217,420628070,0,6546,-363,6090,13724,-715,1118,1466
2017/07/11/16:20:17.437216,227535,1499761217,436861991,0,6556,-364,6102,13714,-697,1195,1427
2017/07/11/16:20:17.461144,227536,1499761217,460913896,0,6562,-356,6109,13708,-626,1223,1414
2017/07/11/16:20:17.481403,227537,1499761217,481053113,0,6566,-355,6112,13705,-650,1159,1437
2017/07/11/16:20:17.495957,227538,1499761217,495790958,0,6567,-353,6118,13701,-671,1136,1427
2017/07/11/16:20:17.518753,227539,1499761217,518583059,0,6570,-348,6127,13696,-660,1194,1410
2017/07/11/16:20:17.540958,227540,1499761217,540671110,0,6574,-350,6128,13693,-644,1159,1389
2017/07/11/16:20:17.555796,227541,1499761217,555602073,0,6577,-351,6130,13691,-639,1190,1406
2017/07/11/16:20:17.586983,227542,1499761217,586308002,0,6580,-354,6132,13689,-709,1172,1436
2017/07/11/16:20:17.600900,227543,1499761217,600673913,0,6583,-351,6141,13684,-700,1208,1407
2017/07/11/16:20:17.616175,227544,1499761217,615993976,0,6587,-349,6146,13679,-682,1203,1394
