time,.header.seq,.header.stamp.secs,.header.stamp.nsecs,.header.frame_id,.quat0,.quat1,.quat2,.quat3,.acc0,.acc1,.acc2
2017/07/11/15:21:20.436422,50982,1499757680,436249971,0,3653,4388,8926,12495,304,1823,541
2017/07/11/15:21:20.451610,50983,1499757680,451467990,0,3647,4420,8909,12498,452,1763,551
2017/07/11/15:21:20.474165,50984,1499757680,473887920,0,3629,4450,8904,12496,442,1777,557
2017/07/11/15:21:20.496589,50985,1499757680,496400117,0,3637,4466,8930,12470,269,1854,489
2017/07/11/15:21:20.512101,50986,1499757680,511909961,0,3664,4472,8943,12450,357,1925,595
2017/07/11/15:21:20.535335,50987,1499757680,535151958,0,3660,4472,8935,12457,446,1786,570
2017/07/11/15:21:20.556830,50988,1499757680,556598901,0,3650,4469,8940,12457,409,1758,531
2017/07/11/15:21:20.575105,50989,1499757680,574857950,0,3642,4445,8970,12447,419,1773,639
2017/07/11/15:21:20.594218,50990,1499757680,593971014,0,3643,4401,9011,12432,308,2003,544
2017/07/11/15:21:20.616804,50991,1499757680,616611003,0,3626,4345,9033,12441,280,1927,555
2017/07/11/15:21:20.631845,50992,1499757680,631566047,0,3612,4283,9056,12450,330,1908,537
2017/07/11/15:21:20.653944,50993,1499757680,653770923,0,3610,4198,9105,12444,280,2030,526
2017/07/11/15:21:20.676422,50994,1499757680,676255941,0,3608,4091,9156,12442,194,2164,538
2017/07/11/15:21:20.691436,50995,1499757680,691276073,0,3679,3903,9266,12400,-170,1909,553
2017/07/11/15:21:20.714528,50996,1499757680,713929891,0,3641,3835,9346,12373,374,2283,611
2017/07/11/15:21:20.736798,50997,1499757680,736664056,0,3679,3676,9423,12352,-159,2276,477
2017/07/11/15:21:20.751809,50998,1499757680,751533985,0,3709,3533,9479,12342,8,2147,495
2017/07/11/15:21:20.773980,50999,1499757680,773796081,0,3739,3375,9537,12332,-33,2018,494
2017/07/11/15:21:20.804974,51000,1499757680,804652929,0,3776,3210,9619,12301,-149,1994,503
2017/07/11/15:21:20.811991,51001,1499757680,811625957,0,3824,3043,9720,12249,-156,2037,526
2017/07/11/15:21:20.834252,51002,1499757680,834049940,0,3869,2873,9818,12198,-197,2116,544
2017/07/11/15:21:20.857759,51003,1499757680,857597112,0,3910,2703,9901,12157,-253,2037,511
2017/07/11/15:21:20.879599,51004,1499757680,879479885,0,3960,2524,9969,12123,-194,1952,483
2017/07/11/15:21:20.893913,51005,1499757680,893759012,0,4020,2346,10043,12078,-277,1909,425
2017/07/11/15:21:20.916530,51006,1499757680,916352033,0,4079,2175,10113,12031,-272,1949,469
2017/07/11/15:21:20.931695,51007,1499757680,931468963,0,4143,2008,10184,11979,-352,1968,415
2017/07/11/15:21:20.956058,51008,1499757680,955677032,0,4209,1852,10251,11923,-336,1908,403
2017/07/11/15:21:20.976590,51009,1499757680,976460933,0,4275,1698,10320,11864,-350,1920,421
2017/07/11/15:21:20.991859,51010,1499757680,991516113,0,4341,1548,10380,11808,-422,1993,387
2017/07/11/15:21:21.013954,51011,1499757681,13784885,0,4414,1402,10413,11770,-449,1955,338
2017/07/11/15:21:21.037052,51012,1499757681,36592006,0,4491,1261,10434,11738,-440,1856,364
2017/07/11/15:21:21.051633,51013,1499757681,51354885,0,4568,1133,10476,11684,-463,1831,375
2017/07/11/15:21:21.074261,51014,1499757681,73985099,0,4647,1012,10521,11624,-493,1929,389
2017/07/11/15:21:21.096590,51015,1499757681,96354007,0,4724,891,10543,11582,-548,1978,389
2017/07/11/15:21:21.120394,51016,1499757681,120286941,0,4804,772,10546,11555,-584,1856,356
2017/07/11/15:21:21.135193,51017,1499757681,135118007,0,4882,665,10551,11524,-597,1751,326
2017/07/11/15:21:21.156903,51018,1499757681,156609058,0,4963,569,10563,11484,-668,1796,323
2017/07/11/15:21:21.178919,51019,1499757681,178764104,0,5043,484,10573,11444,-668,1799,360
2017/07/11/15:21:21.194058,51020,1499757681,193892955,0,5118,403,10570,11416,-666,1879,407
2017/07/11/15:21:21.218329,51021,1499757681,217886924,0,5182,322,10550,11408,-724,1889,406
2017/07/11/15:21:21.239799,51022,1499757681,238940000,0,5250,240,10511,11416,-804,1794,311
2017/07/11/15:21:21.254039,51023,1499757681,253830909,0,5333,153,10466,11420,-814,1585,362
2017/07/11/15:21:21.276829,51024,1499757681,276595115,0,5413,95,10448,11400,-706,1587,415
2017/07/11/15:21:21.298941,51025,1499757681,298783063,0,5482,45,10442,11372,-694,1847,426
2017/07/11/15:21:21.314015,51026,1499757681,313811063,0,5538,-7,10412,11373,-749,1857,381
2017/07/11/15:21:21.336739,51027,1499757681,336498975,0,5598,-69,10360,11391,-821,1682,418
2017/07/11/15:21:21.358985,51028,1499757681,358838081,0,5662,-129,10313,11401,-802,1602,457
2017/07/11/15:21:21.374157,51029,1499757681,374022006,0,5723,-179,10273,11406,-785,1671,427
2017/07/11/15:21:21.397104,51030,1499757681,396898984,0,5787,-234,10232,11409,-835,1779,412
2017/07/11/15:21:21.419017,51031,1499757681,418845891,0,5854,-289,10182,11418,-862,1749,417
2017/07/11/15:21:21.433920,51032,1499757681,433749914,0,5911,-339,10131,11433,-812,1674,517
2017/07/11/15:21:21.456710,51033,1499757681,456427097,0,5962,-387,10086,11445,-919,1693,469
2017/07/11/15:21:21.479254,51034,1499757681,478858947,0,6015,-437,10027,11467,-946,1708,493
2017/07/11/15:21:21.494002,51035,1499757681,493809938,0,6074,-489,9968,11485,-983,1628,452
2017/07/11/15:21:21.516759,51036,1499757681,516503095,0,6135,-532,9921,11492,-957,1574,522
2017/07/11/15:21:21.539121,51037,1499757681,538835048,0,6190,-565,9884,11493,-957,1709,514
2017/07/11/15:21:21.553925,51038,1499757681,553802013,0,6244,-603,9829,11508,-989,1702,538
2017/07/11/15:21:21.576446,51039,1499757681,576263904,0,6300,-641,9766,11529,-1035,1541,535
2017/07/11/15:21:21.599514,51040,1499757681,599358081,0,6358,-676,9701,11550,-1036,1515,585
2017/07/11/15:21:21.615373,51041,1499757681,615220069,0,6428,-707,9639,11562,-1086,1500,600
2017/07/11/15:21:21.636935,51042,1499757681,636723041,0,6496,-726,9577,11574,-1058,1602,626
2017/07/11/15:21:21.658990,51043,1499757681,658837080,0,6549,-747,9505,11602,-1036,1594,607
2017/07/11/15:21:21.674813,51044,1499757681,674235105,0,6600,-766,9429,11635,-1052,1444,609
2017/07/11/15:21:21.696545,51045,1499757681,696424007,0,6652,-768,9364,11657,-1052,1363,677
2017/07/11/15:21:21.719210,51046,1499757681,719029903,0,6706,-754,9318,11664,-1105,1414,683
2017/07/11/15:21:21.734130,51047,1499757681,733915090,0,6755,-725,9259,11685,-978,1515,725
2017/07/11/15:21:21.756753,51048,1499757681,756525993,0,6789,-708,9181,11727,-913,1422,773
2017/07/11/15:21:21.782943,51049,1499757681,782785892,0,6820,-701,9112,11763,-1006,1466,754
2017/07/11/15:21:21.794053,51050,1499757681,793930053,0,6844,-690,9044,11802,-994,1414,689
2017/07/11/15:21:21.818207,51051,1499757681,818054914,0,6870,-680,8971,11843,-965,1414,758
2017/07/11/15:21:21.838925,51052,1499757681,838821887,0,6897,-669,8898,11883,-1025,1407,860
2017/07/11/15:21:21.854064,51053,1499757681,853842020,0,6930,-655,8831,11915,-1080,1445,845
2017/07/11/15:21:21.876939,51054,1499757681,876447916,0,6960,-631,8758,11953,-962,1534,817
2017/07/11/15:21:21.898981,51055,1499757681,898801088,0,6988,-615,8688,11988,-993,1482,817
2017/07/11/15:21:21.914596,51056,1499757681,914364099,0,7013,-595,8612,12029,-990,1473,861
2017/07/11/15:21:21.938515,51057,1499757681,938385963,0,7036,-586,8524,12079,-893,1457,896
2017/07/11/15:21:21.959105,51058,1499757681,958981990,0,7073,-600,8415,12133,-966,1449,933
2017/07/11/15:21:21.974175,51059,1499757681,973979949,0,7123,-618,8290,12189,-966,1393,993
2017/07/11/15:21:21.996829,51060,1499757681,996458053,0,7174,-626,8187,12228,-1046,1339,995
2017/07/11/15:21:22.019508,51061,1499757682,19205093,0,7212,-619,8096,12267,-887,1410,1031
2017/07/11/15:21:22.034677,51062,1499757682,34320116,0,7240,-627,7995,12315,-920,1372,1078
2017/07/11/15:21:22.056492,51063,1499757682,56368112,0,7281,-647,7880,12365,-1028,1265,1064
2017/07/11/15:21:22.079319,51064,1499757682,79094886,0,7328,-658,7764,12409,-948,1267,1107
2017/07/11/15:21:22.094246,51065,1499757682,94001054,0,7365,-670,7649,12458,-840,1389,1203
2017/07/11/15:21:22.116636,51066,1499757682,116405010,0,7394,-714,7518,12518,-943,1294,1155
2017/07/11/15:21:22.139248,51067,1499757682,138936996,0,7431,-763,7372,12580,-959,1106,1142
2017/07/11/15:21:22.162615,51068,1499757682,162491083,0,7467,-805,7237,12635,-869,1140,1214
2017/07/11/15:21:22.176425,51069,1499757682,176256895,0,7495,-849,7131,12675,-1046,1207,1219
2017/07/11/15:21:22.207821,51070,1499757682,207112073,0,7513,-881,7026,12721,-926,1284,1243
2017/07/11/15:21:22.221591,51071,1499757682,221393108,0,7528,-926,6904,12775,-839,1209,1365
2017/07/11/15:21:22.236970,51072,1499757682,236726999,0,7551,-982,6798,12815,-1076,1131,1293
2017/07/11/15:21:22.259143,51073,1499757682,258905887,0,7577,-1004,6718,12840,-1022,1127,1320
2017/07/11/15:21:22.281702,51074,1499757682,281400918,0,7594,-1005,6646,12867,-820,1220,1402
2017/07/11/15:21:22.296468,51075,1499757682,296283960,0,7608,-1026,6563,12900,-902,1166,1427
2017/07/11/15:21:22.319390,51076,1499757682,318970918,0,7631,-1055,6488,12922,-1008,1046,1383
2017/07/11/15:21:22.341441,51077,1499757682,341278076,0,7653,-1059,6426,12939,-978,1126,1374
2017/07/11/15:21:22.356535,51078,1499757682,356383085,0,7674,-1059,6362,12958,-936,1083,1471
2017/07/11/15:21:22.379191,51079,1499757682,378936052,0,7693,-1059,6297,12979,-879,978,1466
2017/07/11/15:21:22.401626,51080,1499757682,401354074,0,7709,-1064,6230,13001,-851,1099,1427
2017/07/11/15:21:22.416449,51081,1499757682,416277885,0,7736,-1098,6143,13024,-931,1048,1403
2017/07/11/15:21:22.439056,51082,1499757682,438893079,0,7768,-1116,6078,13034,-1010,874,1433
2017/07/11/15:21:22.461559,51083,1499757682,461348056,0,7790,-1095,6046,13037,-899,1048,1503
2017/07/11/15:21:22.476706,51084,1499757682,476459980,0,7797,-1076,6021,13046,-766,1064,1421
2017/07/11/15:21:22.499375,51085,1499757682,499016046,0,7801,-1085,5986,13059,-775,1018,1387
2017/07/11/15:21:22.521691,51086,1499757682,521444082,0,7813,-1110,5937,13073,-816,871,1519
2017/07/11/15:21:22.536377,51087,1499757682,536243915,0,7824,-1116,5933,13068,-1020,905,1532
2017/07/11/15:21:22.559190,51088,1499757682,559017896,0,7819,-1096,5958,13060,-861,1107,1491
2017/07/11/15:21:22.581438,51089,1499757682,581321001,0,7814,-1112,5944,13068,-853,1059,1482
2017/07/11/15:21:22.596792,51090,1499757682,596437931,0,7824,-1158,5896,13080,-947,903,1612
2017/07/11/15:21:22.619245,51091,1499757682,619066953,0,7839,-1182,5876,13078,-984,846,1574
2017/07/11/15:21:22.641804,51092,1499757682,641582965,0,7839,-1162,5906,13066,-870,1019,1448
2017/07/11/15:21:22.657926,51093,1499757682,657854080,0,7833,-1157,5928,13061,-939,1085,1414
2017/07/11/15:21:22.679430,51094,1499757682,678972959,0,7828,-1175,5919,13066,-924,926,1525
2017/07/11/15:21:22.701544,51095,1499757682,701318979,0,7833,-1197,5908,13066,-986,823,1515
2017/07/11/15:21:22.717170,51096,1499757682,716852903,0,7840,-1190,5930,13052,-963,978,1423
2017/07/11/15:21:22.740445,51097,1499757682,740274906,0,7838,-1180,5953,13044,-907,1136,1434
2017/07/11/15:21:22.761725,51098,1499757682,761454105,0,7834,-1196,5948,13047,-921,991,1440
2017/07/11/15:21:22.776723,51099,1499757682,776578903,0,7834,-1228,5924,13055,-907,917,1495
2017/07/11/15:21:22.799291,51100,1499757682,799041032,0,7847,-1250,5914,13050,-953,859,1426
2017/07/11/15:21:22.821433,51101,1499757682,821285009,0,7860,-1240,5939,13031,-938,969,1422
2017/07/11/15:21:22.837957,51102,1499757682,837557077,0,7850,-1224,5968,13026,-848,1124,1429
2017/07/11/15:21:22.859415,51103,1499757682,859184026,0,7840,-1246,5963,13032,-944,887,1444
2017/07/11/15:21:22.881539,51104,1499757682,881360054,0,7846,-1263,5964,13027,-1029,808,1404
2017/07/11/15:21:22.896462,51105,1499757682,896285057,0,7854,-1253,5979,13015,-967,1046,1522
2017/07/11/15:21:22.919325,51106,1499757682,919121980,0,7852,-1253,5989,13012,-1002,1024,1425
2017/07/11/15:21:22.941478,51107,1499757682,941288948,0,7844,-1260,5980,13021,-905,939,1429
2017/07/11/15:21:22.956430,51108,1499757682,956331014,0,7845,-1266,5975,13022,-943,915,1361
2017/07/11/15:21:22.979188,51109,1499757682,978980064,0,7848,-1259,5980,13018,-927,974,1424
2017/07/11/15:21:23.001698,51110,1499757683,1467943,0,7840,-1251,5986,13021,-918,1029,1494
2017/07/11/15:21:23.016601,51111,1499757683,16382932,0,7829,-1258,5989,13026,-982,957,1447
2017/07/11/15:21:23.039290,51112,1499757683,39088964,0,7828,-1254,5993,13025,-981,944,1387
2017/07/11/15:21:23.061458,51113,1499757683,61281919,0,7832,-1237,6002,13020,-964,978,1449
2017/07/11/15:21:23.076670,51114,1499757683,76498985,0,7829,-1211,6020,13016,-884,1048,1422
2017/07/11/15:21:23.098923,51115,1499757683,98746061,0,7819,-1210,6028,13018,-857,1073,1420
2017/07/11/15:21:23.121777,51116,1499757683,121526956,0,7817,-1229,6013,13025,-912,916,1436
2017/07/11/15:21:23.136766,51117,1499757683,136409044,0,7823,-1234,6017,13018,-1014,930,1487
2017/07/11/15:21:23.162351,51118,1499757683,159132003,0,7826,-1224,6034,13010,-997,1098,1468
2017/07/11/15:21:23.181601,51119,1499757683,181441068,0,7824,-1225,6028,13014,-945,1054,1440
2017/07/11/15:21:23.196819,51120,1499757683,196681976,0,7829,-1231,6017,13015,-974,942,1446
2017/07/11/15:21:23.218926,51121,1499757683,218806982,0,7843,-1223,6019,13007,-962,974,1438
2017/07/11/15:21:23.243402,51122,1499757683,243074893,0,7852,-1205,6023,13001,-922,1032,1442
2017/07/11/15:21:23.264492,51123,1499757683,264215946,0,7853,-1200,6024,13000,-936,1050,1419
2017/07/11/15:21:23.278841,51124,1499757683,278717041,0,7857,-1205,6013,13003,-924,983,1446
2017/07/11/15:21:23.301988,51125,1499757683,301693916,0,7867,-1211,6007,12999,-1006,929,1486
2017/07/11/15:21:23.324230,51126,1499757683,324060916,0,7880,-1202,6018,12986,-969,965,1449
2017/07/11/15:21:23.338987,51127,1499757683,338804006,0,7885,-1183,6035,12977,-878,1064,1410
2017/07/11/15:21:23.361994,51128,1499757683,361526012,0,7882,-1180,6041,12977,-893,1064,1444
2017/07/11/15:21:23.392715,51129,1499757683,391982078,0,7881,-1194,6030,12981,-963,955,1496
2017/07/11/15:21:23.399100,51130,1499757683,398885011,0,7890,-1199,6032,12974,-985,908,1467
2017/07/11/15:21:23.421850,51131,1499757683,421571969,0,7899,-1183,6049,12962,-897,1024,1410
2017/07/11/15:21:23.447668,51132,1499757683,447561025,0,7903,-1177,6062,12954,-923,1020,1412
2017/07/11/15:21:23.459172,51133,1499757683,458920955,0,7901,-1177,6068,12953,-904,962,1431
2017/07/11/15:21:23.481769,51134,1499757683,481492042,0,7902,-1186,6075,12948,-1010,997,1401
2017/07/11/15:21:23.505051,51135,1499757683,504456043,0,7906,-1195,6067,12949,-952,964,1407
2017/07/11/15:21:23.519012,51136,1499757683,518848896,0,7911,-1194,6070,12944,-967,982,1441
2017/07/11/15:21:23.541597,51137,1499757683,541448116,0,7911,-1183,6081,12940,-909,1028,1447
2017/07/11/15:21:23.564111,51138,1499757683,563855886,0,7909,-1177,6080,12942,-929,1039,1414
