time,.header.seq,.header.stamp.secs,.header.stamp.nsecs,.header.frame_id,.ch0,.ch1,.ch2,.ch3,.ch4,.ch5,.ch6,.ch7
2017/07/11/16:06:17.951528,186861,1499760377,951298952,0,41,38,55,42,27,22,22,43
2017/07/11/16:06:17.974180,186862,1499760377,973862886,0,42,42,55,44,28,21,23,45
2017/07/11/16:06:17.989459,186863,1499760377,989082098,0,46,47,60,48,33,30,25,47
2017/07/11/16:06:18.011779,186864,1499760378,11585950,0,48,51,57,50,31,36,26,52
2017/07/11/16:06:18.034465,186865,1499760378,34257888,0,49,51,53,43,28,37,26,48
2017/07/11/16:06:18.049192,186866,1499760378,48954963,0,49,50,46,41,31,38,26,47
2017/07/11/16:06:18.071692,186867,1499760378,71398973,0,50,49,49,41,30,39,26,43
2017/07/11/16:06:18.094098,186868,1499760378,93935012,0,56,64,68,36,26,33,24,43
2017/07/11/16:06:18.109428,186869,1499760378,108994960,0,53,65,73,36,27,25,22,42
2017/07/11/16:06:18.131993,186870,1499760378,131695032,0,53,66,74,36,27,21,22,47
2017/07/11/16:06:18.155010,186871,1499760378,154412984,0,59,69,75,35,24,20,26,60
2017/07/11/16:06:18.170466,186872,1499760378,170285940,0,58,70,72,31,23,20,25,63
2017/07/11/16:06:18.191801,186873,1499760378,191488981,0,69,53,49,34,22,19,28,66
2017/07/11/16:06:18.214367,186874,1499760378,214061021,0,116,58,43,33,23,31,35,72
2017/07/11/16:06:18.229131,186875,1499760378,228862047,0,123,62,40,32,25,40,36,68
2017/07/11/16:06:18.251739,186876,1499760378,251519918,0,130,61,42,33,26,40,34,63
2017/07/11/16:06:18.274545,186877,1499760378,274190902,0,200,75,45,34,27,45,46,67
2017/07/11/16:06:18.296450,186878,1499760378,296273946,0,208,86,46,33,27,46,47,74
2017/07/11/16:06:18.312238,186879,1499760378,311835050,0,227,91,48,36,31,51,55,87
2017/07/11/16:06:18.334316,186880,1499760378,334121942,0,266,100,51,36,27,51,62,108
2017/07/11/16:06:18.349590,186881,1499760378,349172115,0,305,117,54,37,30,65,74,107
2017/07/11/16:06:18.371594,186882,1499760378,371377944,0,273,117,56,37,29,63,71,104
2017/07/11/16:06:18.394411,186883,1499760378,393997907,0,546,148,69,40,39,82,83,151
2017/07/11/16:06:18.408843,186884,1499760378,408720970,0,562,161,73,42,44,86,83,154
2017/07/11/16:06:18.431683,186885,1499760378,431488990,0,572,166,75,46,53,140,107,176
2017/07/11/16:06:18.455850,186886,1499760378,454092025,0,572,159,71,46,54,138,103,197
2017/07/11/16:06:18.469133,186887,1499760378,469013929,0,632,165,74,48,54,142,104,219
2017/07/11/16:06:18.492252,186888,1499760378,491878032,0,548,154,64,47,51,140,103,230
2017/07/11/16:06:18.514235,186889,1499760378,513968944,0,564,143,60,45,46,139,107,232
2017/07/11/16:06:18.529348,186890,1499760378,529078006,0,547,130,55,48,38,93,92,232
2017/07/11/16:06:18.551805,186891,1499760378,551621913,0,535,132,61,52,37,89,95,224
2017/07/11/16:06:18.577510,186892,1499760378,573836088,0,548,147,61,51,40,88,94,218
2017/07/11/16:06:18.590519,186893,1499760378,590221881,0,435,129,59,51,55,143,122,177
2017/07/11/16:06:18.612150,186894,1499760378,611711978,0,385,120,55,54,80,212,135,194
2017/07/11/16:06:18.634057,186895,1499760378,633832931,0,423,125,59,56,82,223,130,197
2017/07/11/16:06:18.648849,186896,1499760378,648736953,0,442,159,68,59,83,225,126,208
2017/07/11/16:06:18.671665,186897,1499760378,671513080,0,449,142,71,61,86,233,135,211
2017/07/11/16:06:18.694508,186898,1499760378,694303989,0,459,142,70,60,77,214,103,227
2017/07/11/16:06:18.708789,186899,1499760378,708686113,0,465,149,74,58,51,168,92,224
2017/07/11/16:06:18.732187,186900,1499760378,731637954,0,427,146,75,52,48,160,95,223
2017/07/11/16:06:18.753912,186901,1499760378,753773927,0,465,134,66,47,50,166,103,248
2017/07/11/16:06:18.768821,186902,1499760378,768683910,0,407,129,58,42,43,155,95,262
2017/07/11/16:06:18.792214,186903,1499760378,791693925,0,391,128,58,45,48,156,98,274
2017/07/11/16:06:18.814271,186904,1499760378,813913106,0,507,133,58,47,57,213,100,272
2017/07/11/16:06:18.837329,186905,1499760378,836941957,0,564,135,57,52,62,214,96,261
2017/07/11/16:06:18.851763,186906,1499760378,851540088,0,548,104,54,50,58,216,100,227
2017/07/11/16:06:18.873976,186907,1499760378,873734951,0,522,97,52,54,60,216,103,214
2017/07/11/16:06:18.897377,186908,1499760378,896878957,0,516,94,53,52,56,217,105,246
2017/07/11/16:06:18.912126,186909,1499760378,911679983,0,426,81,58,53,46,136,96,265
2017/07/11/16:06:18.934625,186910,1499760378,934307098,0,447,95,59,51,43,127,103,301
2017/07/11/16:06:18.956885,186911,1499760378,956660032,0,410,99,63,57,57,137,101,325
2017/07/11/16:06:18.972619,186912,1499760378,971987009,0,435,103,64,54,57,143,103,325
2017/07/11/16:06:18.993845,186913,1499760378,993746995,0,429,101,63,54,57,133,109,289
2017/07/11/16:06:19.016628,186914,1499760379,16388893,0,453,110,56,54,56,136,124,293
2017/07/11/16:06:19.031612,186915,1499760379,31399011,0,445,115,67,58,64,136,122,288
2017/07/11/16:06:19.054649,186916,1499760379,54220914,0,462,119,68,59,65,116,120,317
2017/07/11/16:06:19.085259,186917,1499760379,84795951,0,439,119,70,61,66,133,129,317
2017/07/11/16:06:19.091549,186918,1499760379,91334104,0,473,121,70,64,69,175,144,357
2017/07/11/16:06:19.114320,186919,1499760379,114085912,0,552,127,74,74,81,186,143,351
2017/07/11/16:06:19.145470,186920,1499760379,144918918,0,540,119,66,70,74,187,145,369
2017/07/11/16:06:19.151954,186921,1499760379,151664018,0,537,114,67,68,66,185,165,369
2017/07/11/16:06:19.174549,186922,1499760379,174232006,0,545,115,72,71,73,185,162,399
2017/07/11/16:06:19.196794,186923,1499760379,196595907,0,580,121,77,71,76,199,149,366
2017/07/11/16:06:19.211439,186924,1499760379,211244106,0,516,121,76,63,66,201,162,404
2017/07/11/16:06:19.235347,186925,1499760379,234941959,0,551,128,74,68,81,204,159,369
2017/07/11/16:06:19.256526,186926,1499760379,256355047,0,547,140,71,69,89,223,137,350
2017/07/11/16:06:19.271513,186927,1499760379,271275043,0,552,140,65,66,87,211,131,330
2017/07/11/16:06:19.294618,186928,1499760379,294269084,0,579,141,62,73,90,191,150,323
2017/07/11/16:06:19.317214,186929,1499760379,316766023,0,609,136,57,73,94,183,123,329
2017/07/11/16:06:19.331445,186930,1499760379,331306934,0,541,126,56,67,84,185,122,332
2017/07/11/16:06:19.354481,186931,1499760379,354228973,0,553,110,52,67,76,175,119,313
2017/07/11/16:06:19.376578,186932,1499760379,376301050,0,583,114,58,66,84,215,164,312
2017/07/11/16:06:19.391783,186933,1499760379,391518115,0,554,134,65,58,76,188,147,334
2017/07/11/16:06:19.414404,186934,1499760379,414207935,0,466,130,70,60,75,223,157,274
2017/07/11/16:06:19.436556,186935,1499760379,436400890,0,472,140,73,64,76,216,158,263
2017/07/11/16:06:19.451722,186936,1499760379,451518058,0,531,157,78,66,74,227,159,287
2017/07/11/16:06:19.490385,186937,1499760379,489936113,0,626,217,94,70,73,331,130,389
2017/07/11/16:06:19.496878,186938,1499760379,496623992,0,608,216,100,88,103,346,130,418
2017/07/11/16:06:19.512849,186939,1499760379,512726068,0,613,213,96,87,108,332,128,422
2017/07/11/16:06:19.534346,186940,1499760379,534044981,0,641,211,98,86,109,338,127,432
2017/07/11/16:06:19.557008,186941,1499760379,556783914,0,675,206,98,82,108,337,132,436
2017/07/11/16:06:19.572860,186942,1499760379,572702884,0,630,155,94,89,119,336,142,361
2017/07/11/16:06:19.594957,186943,1499760379,594553947,0,616,144,83,79,100,328,143,335
2017/07/11/16:06:19.625107,186944,1499760379,624809980,0,655,147,85,77,95,326,158,335
2017/07/11/16:06:19.632163,186945,1499760379,631941080,0,686,144,79,78,93,325,159,355
2017/07/11/16:06:19.654523,186946,1499760379,654238939,0,629,145,74,82,102,335,170,364
2017/07/11/16:06:19.676548,186947,1499760379,676311016,0,587,139,62,81,98,280,165,349
2017/07/11/16:06:19.699332,186948,1499760379,699166059,0,644,136,67,78,94,277,163,336
2017/07/11/16:06:19.714734,186949,1499760379,714329004,0,612,139,69,77,91,269,137,345
2017/07/11/16:06:19.736918,186950,1499760379,736685991,0,541,129,68,75,91,269,146,310
2017/07/11/16:06:19.751539,186951,1499760379,751271009,0,581,187,93,72,85,244,153,327
2017/07/11/16:06:19.774611,186952,1499760379,774317026,0,558,187,90,63,78,180,167,359
2017/07/11/16:06:19.796691,186953,1499760379,796454906,0,490,183,85,56,76,194,174,351
2017/07/11/16:06:19.819011,186954,1499760379,818813085,0,539,179,82,52,74,196,176,337
2017/07/11/16:06:19.834282,186955,1499760379,833915948,0,577,182,85,55,74,220,170,360
2017/07/11/16:06:19.858810,186956,1499760379,858341932,0,554,138,65,71,90,226,152,394
2017/07/11/16:06:19.879525,186957,1499760379,879236936,0,535,124,58,67,82,228,112,369
2017/07/11/16:06:19.893869,186958,1499760379,893678903,0,545,125,64,70,87,229,104,390
2017/07/11/16:06:19.916943,186959,1499760379,916682004,0,497,126,66,84,97,229,107,390
2017/07/11/16:06:19.939121,186960,1499760379,938863992,0,516,132,64,81,97,201,115,390
2017/07/11/16:06:19.954030,186961,1499760379,953850030,0,451,113,61,81,90,223,109,324
2017/07/11/16:06:19.977547,186962,1499760379,977336883,0,448,116,63,80,88,257,120,310
2017/07/11/16:06:19.999525,186963,1499760379,999114036,0,443,117,59,80,84,249,115,331
2017/07/11/16:06:20.015752,186964,1499760380,15610933,0,514,147,65,67,70,257,121,340
2017/07/11/16:06:20.036580,186965,1499760380,36407947,0,427,134,63,67,67,262,123,317
2017/07/11/16:06:20.062052,186966,1499760380,61692953,0,427,128,58,50,54,250,154,308
2017/07/11/16:06:20.074513,186967,1499760380,74165105,0,428,126,61,50,56,220,153,302
2017/07/11/16:06:20.096869,186968,1499760380,96590042,0,404,122,61,53,56,204,149,266
2017/07/11/16:06:20.128150,186969,1499760380,127049922,0,371,93,51,55,62,190,143,285
2017/07/11/16:06:20.134373,186970,1499760380,134059906,0,396,100,52,55,63,197,158,292
2017/07/11/16:06:20.156766,186971,1499760380,156502962,0,384,93,54,55,60,176,128,281
2017/07/11/16:06:20.179376,186972,1499760380,179141998,0,454,88,47,54,57,133,133,275
2017/07/11/16:06:20.196014,186973,1499760380,195724964,0,467,87,47,52,55,128,131,280
2017/07/11/16:06:20.216483,186974,1499760380,216345071,0,421,79,51,49,61,195,133,238
2017/07/11/16:06:20.239063,186975,1499760380,238734006,0,481,99,60,55,66,177,113,241
2017/07/11/16:06:20.256406,186976,1499760380,256053924,0,522,97,61,57,68,178,109,249
2017/07/11/16:06:20.276943,186977,1499760380,276770114,0,460,100,64,59,66,176,97,250
2017/07/11/16:06:20.299642,186978,1499760380,299242973,0,474,105,63,57,66,199,126,280
2017/07/11/16:06:20.314683,186979,1499760380,314059972,0,461,105,60,55,52,129,118,281
2017/07/11/16:06:20.337905,186980,1499760380,337739944,0,417,97,56,52,46,145,114,268
2017/07/11/16:06:20.367840,186981,1499760380,367331981,0,376,100,54,48,46,154,124,258
2017/07/11/16:06:20.374020,186982,1499760380,373802900,0,370,105,58,45,46,156,124,288
2017/07/11/16:06:20.396987,186983,1499760380,396733999,0,376,107,57,55,55,190,131,245
2017/07/11/16:06:20.419188,186984,1499760380,419064044,0,435,113,61,57,55,190,130,248
2017/07/11/16:06:20.441517,186985,1499760380,441370010,0,430,105,60,57,59,184,140,268
2017/07/11/16:06:20.456402,186986,1499760380,456227064,0,415,107,62,58,59,180,137,263
2017/07/11/16:06:20.479369,186987,1499760380,479115962,0,419,111,62,61,61,179,132,237
2017/07/11/16:06:20.494471,186988,1499760380,493967056,0,403,107,63,53,53,161,120,224
2017/07/11/16:06:20.516517,186989,1499760380,516374111,0,365,101,61,51,55,167,125,212
2017/07/11/16:06:20.539706,186990,1499760380,539202928,0,383,98,58,50,51,160,106,173
2017/07/11/16:06:20.558232,186991,1499760380,557991027,0,389,100,58,47,46,152,103,174
2017/07/11/16:06:20.576361,186992,1499760380,576210021,0,383,85,54,45,45,156,105,155
2017/07/11/16:06:20.608654,186993,1499760380,608202934,0,436,95,58,44,40,99,87,149
2017/07/11/16:06:20.614533,186994,1499760380,614177942,0,414,92,53,44,39,96,96,141
2017/07/11/16:06:20.645277,186995,1499760380,644829988,0,373,87,52,45,40,90,96,180
2017/07/11/16:06:20.659420,186996,1499760380,659104108,0,370,81,49,47,43,89,90,164
2017/07/11/16:06:20.674679,186997,1499760380,673857927,0,393,87,50,44,38,69,82,159
2017/07/11/16:06:20.696812,186998,1499760380,696455001,0,292,66,43,43,39,70,75,149
2017/07/11/16:06:20.719291,186999,1499760380,718875885,0,270,64,44,43,37,56,51,148
2017/07/11/16:06:20.741879,187000,1499760380,741694927,0,239,63,44,38,35,54,54,172
2017/07/11/16:06:20.757292,187001,1499760380,756792068,0,262,68,43,41,33,54,55,175
2017/07/11/16:06:20.779074,187002,1499760380,778903007,0,217,57,38,39,33,56,58,179
2017/07/11/16:06:20.801277,187003,1499760380,801175117,0,203,53,35,39,34,52,52,171
2017/07/11/16:06:20.817315,187004,1499760380,816787004,0,274,60,40,42,37,54,59,177
