time,.header.seq,.header.stamp.secs,.header.stamp.nsecs,.header.frame_id,.ch0,.ch1,.ch2,.ch3,.ch4,.ch5,.ch6,.ch7
2017/07/11/16:16:06.365898,216216,1499760966,365282058,0,55,35,28,23,26,99,51,41
2017/07/11/16:16:06.389173,216217,1499760966,388761043,0,197,57,33,69,78,98,48,42
2017/07/11/16:16:06.403389,216218,1499760966,403057098,0,215,63,35,76,83,97,42,50
2017/07/11/16:16:06.425876,216219,1499760966,425405979,0,217,63,35,77,82,46,39,56
2017/07/11/16:16:06.447699,216220,1499760966,447496891,0,223,65,38,77,83,57,48,87
2017/07/11/16:16:06.462701,216221,1499760966,462554931,0,292,82,43,79,85,52,47,96
2017/07/11/16:16:06.485310,216222,1499760966,485071897,0,239,96,45,49,44,50,48,105
2017/07/11/16:16:06.508667,216223,1499760966,508152008,0,237,102,44,56,62,50,58,115
2017/07/11/16:16:06.523169,216224,1499760966,522809982,0,252,107,47,57,64,55,66,113
2017/07/11/16:16:06.545526,216225,1499760966,545022964,0,281,112,47,59,66,46,65,116
2017/07/11/16:16:06.568112,216226,1499760966,567882061,0,262,109,50,61,64,43,76,115
2017/07/11/16:16:06.582744,216227,1499760966,582515954,0,285,95,52,57,62,43,84,113
2017/07/11/16:16:06.605292,216228,1499760966,605072975,0,277,88,57,41,40,56,90,132
2017/07/11/16:16:06.628409,216229,1499760966,628128051,0,264,85,55,40,38,68,86,133
2017/07/11/16:16:06.643630,216230,1499760966,643280982,0,234,78,56,38,32,71,85,118
2017/07/11/16:16:06.666774,216231,1499760966,666593074,0,307,98,64,41,32,73,81,129
2017/07/11/16:16:06.688007,216232,1499760966,687688112,0,290,107,65,44,33,75,76,137
2017/07/11/16:16:06.702992,216233,1499760966,702780961,0,294,115,63,42,31,71,65,109
2017/07/11/16:16:06.725531,216234,1499760966,725239992,0,296,117,70,42,30,61,76,111
2017/07/11/16:16:06.749533,216235,1499760966,749280929,0,343,121,70,42,30,74,89,120
2017/07/11/16:16:06.762716,216236,1499760966,762562990,0,324,114,65,34,27,81,89,118
2017/07/11/16:16:06.785166,216237,1499760966,785006046,0,345,104,61,31,26,82,92,113
2017/07/11/16:16:06.816209,216238,1499760966,815958023,0,347,127,61,33,25,78,91,113
2017/07/11/16:16:06.822912,216239,1499760966,822758913,0,367,136,68,36,26,79,107,114
2017/07/11/16:16:06.845206,216240,1499760966,845012903,0,373,145,71,34,27,70,96,106
2017/07/11/16:16:06.868337,216241,1499760966,867888927,0,390,163,73,39,30,67,113,104
2017/07/11/16:16:06.890656,216242,1499760966,890306949,0,390,164,70,39,30,67,109,97
2017/07/11/16:16:06.905226,216243,1499760966,905045032,0,398,146,71,37,29,67,108,95
2017/07/11/16:16:06.929325,216244,1499760966,929212093,0,471,164,63,36,30,65,86,100
2017/07/11/16:16:06.950496,216245,1499760966,950212001,0,443,156,58,36,30,60,101,99
2017/07/11/16:16:06.965312,216246,1499760966,965091943,0,553,150,53,34,31,105,93,117
2017/07/11/16:16:06.987716,216247,1499760966,987521886,0,567,150,54,35,34,107,93,116
2017/07/11/16:16:07.010368,216248,1499760967,10189056,0,565,146,53,35,35,112,95,117
2017/07/11/16:16:07.025395,216249,1499760967,25111913,0,500,134,49,31,33,111,93,125
2017/07/11/16:16:07.048435,216250,1499760967,47988891,0,570,143,48,30,35,116,86,132
2017/07/11/16:16:07.070561,216251,1499760967,70221900,0,479,131,46,28,31,79,84,114
2017/07/11/16:16:07.085774,216252,1499760967,85448980,0,474,136,50,30,33,102,102,140
2017/07/11/16:16:07.109571,216253,1499760967,109400987,0,494,135,49,30,33,98,106,142
2017/07/11/16:16:07.130865,216254,1499760967,130548954,0,490,117,45,33,34,106,106,133
2017/07/11/16:16:07.152828,216255,1499760967,152668952,0,405,108,46,36,34,107,100,145
2017/07/11/16:16:07.167948,216256,1499760967,167821884,0,355,109,47,38,39,109,91,179
2017/07/11/16:16:07.190372,216257,1499760967,190167903,0,310,101,43,37,39,111,77,164
2017/07/11/16:16:07.205585,216258,1499760967,205121040,0,280,105,44,40,40,131,82,168
2017/07/11/16:16:07.227781,216259,1499760967,227555990,0,304,107,44,39,39,125,84,195
2017/07/11/16:16:07.250266,216260,1499760967,250073909,0,348,124,47,37,38,122,96,215
2017/07/11/16:16:07.265685,216261,1499760967,265398979,0,399,124,52,36,37,120,109,201
2017/07/11/16:16:07.288191,216262,1499760967,287938117,0,507,143,60,37,49,234,119,221
2017/07/11/16:16:07.326324,216263,1499760967,319526910,0,583,144,59,34,48,227,121,239
2017/07/11/16:16:07.333357,216264,1499760967,332881927,0,595,147,71,40,51,234,119,228
2017/07/11/16:16:07.348540,216265,1499760967,348195075,0,641,150,80,44,52,237,109,227
2017/07/11/16:16:07.370768,216266,1499760967,370336055,0,592,141,78,44,51,244,110,244
2017/07/11/16:16:07.387111,216267,1499760967,386914014,0,528,119,75,49,43,124,102,252
2017/07/11/16:16:07.408346,216268,1499760967,407926082,0,500,128,79,54,44,124,108,251
2017/07/11/16:16:07.431126,216269,1499760967,430567026,0,478,122,69,49,42,112,112,249
2017/07/11/16:16:07.445546,216270,1499760967,445148944,0,405,110,58,47,42,115,117,241
2017/07/11/16:16:07.468599,216271,1499760967,468126058,0,448,113,61,48,46,115,115,305
2017/07/11/16:16:07.491044,216272,1499760967,490444898,0,484,121,60,44,48,113,113,310
2017/07/11/16:16:07.505218,216273,1499760967,505086898,0,457,113,63,47,51,145,108,335
2017/07/11/16:16:07.527610,216274,1499760967,527461051,0,546,121,68,50,51,153,113,347
2017/07/11/16:16:07.550381,216275,1499760967,550054073,0,570,113,72,53,54,154,119,363
2017/07/11/16:16:07.565498,216276,1499760967,565103054,0,591,115,67,51,52,152,113,306
2017/07/11/16:16:07.589337,216277,1499760967,589139938,0,576,124,72,55,57,185,138,314
2017/07/11/16:16:07.610388,216278,1499760967,610241889,0,601,120,79,60,61,169,140,291
2017/07/11/16:16:07.625182,216279,1499760967,624974966,0,539,120,79,61,64,197,154,347
2017/07/11/16:16:07.647842,216280,1499760967,647538900,0,530,121,74,59,62,202,157,345
2017/07/11/16:16:07.670479,216281,1499760967,670310020,0,529,144,83,64,79,295,191,361
2017/07/11/16:16:07.685602,216282,1499760967,685272932,0,622,172,96,71,80,307,188,357
2017/07/11/16:16:07.707798,216283,1499760967,707509040,0,615,188,95,68,82,307,190,347
2017/07/11/16:16:07.730486,216284,1499760967,730277061,0,609,184,93,68,97,430,210,290
2017/07/11/16:16:07.745685,216285,1499760967,745183944,0,612,185,95,69,104,451,208,289
2017/07/11/16:16:07.767715,216286,1499760967,767541885,0,622,167,90,66,93,407,188,332
2017/07/11/16:16:07.790162,216287,1499760967,790011882,0,557,142,71,55,89,387,179,364
2017/07/11/16:16:07.818380,216288,1499760967,818170070,0,587,126,60,49,83,386,198,384
2017/07/11/16:16:07.828828,216289,1499760967,828155040,0,617,140,62,47,61,221,160,385
2017/07/11/16:16:07.850374,216290,1499760967,850104093,0,621,140,68,50,63,259,161,382
2017/07/11/16:16:07.883158,216291,1499760967,881711006,0,575,143,77,55,65,285,152,364
2017/07/11/16:16:07.895924,216292,1499760967,895442008,0,568,140,84,55,66,325,194,323
2017/07/11/16:16:07.920318,216293,1499760967,920152902,0,527,143,88,73,82,325,182,382
2017/07/11/16:16:07.932796,216294,1499760967,932570934,0,554,144,90,75,85,323,201,377
2017/07/11/16:16:07.948195,216295,1499760967,947861909,0,692,181,99,74,75,282,210,392
2017/07/11/16:16:07.970758,216296,1499760967,970405101,0,773,214,99,72,78,252,215,366
2017/07/11/16:16:07.993531,216297,1499760967,992942094,0,729,203,97,83,82,209,179,375
2017/07/11/16:16:08.008036,216298,1499760968,7873058,0,790,206,98,74,106,301,189,324
2017/07/11/16:16:08.030390,216299,1499760968,30177116,0,837,215,99,84,111,317,176,347
2017/07/11/16:16:08.055122,216300,1499760968,54963111,0,717,183,91,87,118,304,175,314
2017/07/11/16:16:08.068212,216301,1499760968,67872047,0,705,171,93,105,148,383,247,366
2017/07/11/16:16:08.090294,216302,1499760968,90045928,0,729,197,111,101,152,433,251,393
2017/07/11/16:16:08.113323,216303,1499760968,113030910,0,733,213,113,101,133,401,257,406
2017/07/11/16:16:08.127818,216304,1499760968,127542018,0,728,249,138,103,138,426,278,492
2017/07/11/16:16:08.150724,216305,1499760968,150170087,0,774,269,139,102,138,474,307,506
2017/07/11/16:16:08.180957,216306,1499760968,180666923,0,734,262,134,90,113,422,259,495
2017/07/11/16:16:08.188432,216307,1499760968,188210964,0,804,268,127,87,103,373,268,468
2017/07/11/16:16:08.210941,216308,1499760968,210472106,0,820,280,134,93,102,385,271,460
2017/07/11/16:16:08.233487,216309,1499760968,233094930,0,810,253,108,84,92,361,266,387
2017/07/11/16:16:08.247778,216310,1499760968,247628927,0,788,242,103,84,89,311,224,389
2017/07/11/16:16:08.270802,216311,1499760968,270447015,0,829,256,109,83,86,349,226,352
2017/07/11/16:16:08.298082,216312,1499760968,297661066,0,832,255,111,93,100,374,209,366
2017/07/11/16:16:08.307824,216313,1499760968,307615041,0,863,275,135,99,98,362,206,413
2017/07/11/16:16:08.330154,216314,1499760968,329942941,0,808,259,134,98,99,360,183,391
2017/07/11/16:16:08.353421,216315,1499760968,352972984,0,816,259,138,96,106,385,213,393
2017/07/11/16:16:08.375896,216316,1499760968,375514030,0,757,243,130,91,100,332,196,391
2017/07/11/16:16:08.390610,216317,1499760968,390290975,0,718,221,130,80,88,305,197,386
2017/07/11/16:16:08.412932,216318,1499760968,412691116,0,691,205,120,74,96,326,202,435
2017/07/11/16:16:08.428199,216319,1499760968,427891969,0,703,219,117,75,97,345,213,445
2017/07/11/16:16:08.450563,216320,1499760968,450289011,0,716,206,116,77,87,322,228,448
2017/07/11/16:16:08.482312,216321,1499760968,480983018,0,812,207,118,78,88,377,273,453
2017/07/11/16:16:08.487900,216322,1499760968,487736940,0,801,229,111,82,94,378,272,470
2017/07/11/16:16:08.510761,216323,1499760968,510399103,0,723,183,81,74,81,330,261,370
2017/07/11/16:16:08.541629,216324,1499760968,540715932,0,722,160,80,78,83,316,284,334
2017/07/11/16:16:08.548362,216325,1499760968,547935962,0,683,162,76,75,87,327,245,323
2017/07/11/16:16:08.570195,216326,1499760968,569996118,0,695,199,89,83,89,287,204,327
2017/07/11/16:16:08.593445,216327,1499760968,593069076,0,729,181,89,81,83,328,216,296
2017/07/11/16:16:08.608043,216328,1499760968,607798099,0,700,198,95,89,91,362,218,296
2017/07/11/16:16:08.630777,216329,1499760968,630378961,0,726,221,98,83,88,375,187,332
2017/07/11/16:16:08.652990,216330,1499760968,652728080,0,739,224,98,82,85,346,190,310
2017/07/11/16:16:08.667581,216331,1499760968,667462110,0,623,188,88,73,78,322,180,291
2017/07/11/16:16:08.690967,216332,1499760968,690556049,0,549,180,87,71,84,339,171,276
2017/07/11/16:16:08.713014,216333,1499760968,712804079,0,562,172,81,57,76,307,260,282
2017/07/11/16:16:08.727988,216334,1499760968,727794885,0,544,146,79,59,74,295,264,244
2017/07/11/16:16:08.751020,216335,1499760968,750407934,0,572,179,86,63,76,311,289,274
2017/07/11/16:16:08.773294,216336,1499760968,772804975,0,604,177,85,59,76,323,299,286
2017/07/11/16:16:08.795524,216337,1499760968,795258045,0,631,176,78,56,71,280,305,302
2017/07/11/16:16:08.810537,216338,1499760968,810276985,0,634,171,74,59,72,279,229,310
2017/07/11/16:16:08.832770,216339,1499760968,832509994,0,662,172,74,61,74,310,213,307
2017/07/11/16:16:08.856967,216340,1499760968,856692075,0,651,138,65,59,73,334,190,295
2017/07/11/16:16:08.870875,216341,1499760968,870378017,0,644,130,66,68,81,323,184,304
2017/07/11/16:16:08.893083,216342,1499760968,892761945,0,651,134,69,73,89,316,173,294
2017/07/11/16:16:08.915993,216343,1499760968,915559053,0,717,132,75,71,87,363,175,267
2017/07/11/16:16:08.930501,216344,1499760968,930222988,0,726,165,80,70,83,314,176,314
2017/07/11/16:16:08.953405,216345,1499760968,953068017,0,730,162,79,75,85,276,190,297
2017/07/11/16:16:08.975251,216346,1499760968,975110054,0,721,159,74,67,79,316,189,282
2017/07/11/16:16:08.990205,216347,1499760968,990032911,0,721,164,73,65,66,308,202,270
2017/07/11/16:16:09.012810,216348,1499760969,12608051,0,703,186,81,63,66,252,196,300
2017/07/11/16:16:09.035683,216349,1499760969,35377025,0,651,160,75,62,67,264,199,259
2017/07/11/16:16:09.054833,216350,1499760969,54622888,0,652,175,76,59,65,297,175,273
2017/07/11/16:16:09.073107,216351,1499760969,72700023,0,672,187,80,62,63,267,166,285
2017/07/11/16:16:09.095226,216352,1499760969,95022916,0,706,191,83,61,65,281,152,302
2017/07/11/16:16:09.110197,216353,1499760969,109908103,0,670,164,68,59,64,329,143,255
2017/07/11/16:16:09.132858,216354,1499760969,132530927,0,668,175,76,62,63,339,163,261
2017/07/11/16:16:09.155623,216355,1499760969,155425071,0,628,159,72,59,63,306,173,264
2017/07/11/16:16:09.170383,216356,1499760969,170157909,0,673,150,68,56,61,292,171,254
2017/07/11/16:16:09.193262,216357,1499760969,192994117,0,624,135,63,55,62,327,171,222
2017/07/11/16:16:09.223365,216358,1499760969,223206996,0,639,141,61,53,60,281,174,234
2017/07/11/16:16:09.230347,216359,1499760969,230155944,0,612,121,52,47,61,287,148,217
2017/07/11/16:16:09.254778,216360,1499760969,254641056,0,673,131,51,40,53,292,145,222
2017/07/11/16:16:09.275862,216361,1499760969,275341033,0,636,137,50,40,55,314,163,214
2017/07/11/16:16:09.290158,216362,1499760969,290030956,0,690,146,49,39,58,286,164,228
2017/07/11/16:16:09.313234,216363,1499760969,312939882,0,671,137,52,41,56,283,164,243
2017/07/11/16:16:09.335976,216364,1499760969,335418939,0,699,141,54,45,64,373,191,262
2017/07/11/16:16:09.350265,216365,1499760969,350060939,0,670,140,54,46,67,368,182,254
2017/07/11/16:16:09.372682,216366,1499760969,372453927,0,662,133,61,50,71,363,174,272
2017/07/11/16:16:09.395666,216367,1499760969,395406961,0,562,122,67,56,69,348,167,269
2017/07/11/16:16:09.410854,216368,1499760969,410583019,0,547,119,65,57,71,353,156,246
2017/07/11/16:16:09.433306,216369,1499760969,432956933,0,542,108,62,53,68,278,129,255
2017/07/11/16:16:09.455653,216370,1499760969,455200910,0,551,94,66,65,76,282,146,240
2017/07/11/16:16:09.478477,216371,1499760969,477988958,0,548,100,63,66,80,295,160,218
