time,.header.seq,.header.stamp.secs,.header.stamp.nsecs,.header.frame_id,.quat0,.quat1,.quat2,.quat3,.acc0,.acc1,.acc2
2017/07/11/16:11:58.235882,202616,1499760718,235228061,0,3185,3945,9913,12018,214,1939,307
2017/07/11/16:11:58.251587,202617,1499760718,250485897,0,3183,3949,9907,12022,240,1931,310
2017/07/11/16:11:58.268831,202618,1499760718,268647909,0,3182,3955,9898,12028,247,1934,296
2017/07/11/16:11:58.288526,202619,1499760718,288275957,0,3182,3960,9892,12031,246,1932,317
2017/07/11/16:11:58.311721,202620,1499760718,311012983,0,3183,3966,9892,12029,196,1923,305
2017/07/11/16:11:58.325562,202621,1499760718,325320005,0,3183,3975,9892,12026,217,1961,309
2017/07/11/16:11:58.349942,202622,1499760718,349675893,0,3181,3989,9893,12021,230,1969,267
2017/07/11/16:11:58.362796,202623,1499760718,362406015,0,3179,4005,9890,12018,250,1949,296
2017/07/11/16:11:58.401215,202624,1499760718,401032924,0,3177,4020,9885,12018,257,1905,306
2017/07/11/16:11:58.402838,202625,1499760718,402647972,0,3177,4033,9881,12017,240,1918,285
2017/07/11/16:11:58.422940,202626,1499760718,422569036,0,3182,4041,9874,12019,248,1951,269
2017/07/11/16:11:58.453248,202627,1499760718,452853918,0,3193,4041,9850,12036,261,1963,308
2017/07/11/16:11:58.460359,202628,1499760718,460042953,0,3199,4042,9827,12053,244,1919,313
2017/07/11/16:11:58.482337,202629,1499760718,482083082,0,3200,4050,9818,12057,265,1939,238
2017/07/11/16:11:58.514349,202630,1499760718,513148069,0,3199,4057,9813,12059,289,2075,214
2017/07/11/16:11:58.520325,202631,1499760718,520006895,0,3205,4063,9794,12071,278,2068,295
2017/07/11/16:11:58.550653,202632,1499760718,550384998,0,3213,4080,9766,12085,305,2006,288
2017/07/11/16:11:58.564942,202633,1499760718,564738035,0,3223,4091,9743,12098,364,2057,226
2017/07/11/16:11:58.580286,202634,1499760718,580022096,0,3273,4076,9715,12112,267,2079,331
2017/07/11/16:11:58.618293,202635,1499760718,618072986,0,3358,4050,9678,12127,333,1945,451
2017/07/11/16:11:58.624747,202636,1499760718,624555110,0,3430,4020,9668,12125,607,1936,449
2017/07/11/16:11:58.639692,202637,1499760718,639518022,0,3475,3931,9694,12120,465,2037,468
2017/07/11/16:11:58.678074,202638,1499760718,677936077,0,3535,3793,9743,12108,261,2178,495
2017/07/11/16:11:58.684826,202639,1499760718,684640884,0,3591,3607,9791,12109,233,2249,548
2017/07/11/16:11:58.700270,202640,1499760718,700020074,0,3652,3359,9858,12108,-27,2495,481
2017/07/11/16:11:58.730811,202641,1499760718,730293989,0,3706,3149,9953,12070,-62,2456,328
2017/07/11/16:11:58.744789,202642,1499760718,744580984,0,3761,2912,10008,12067,24,2235,528
2017/07/11/16:11:58.760153,202643,1499760718,759761095,0,3839,2638,10041,12078,-161,2034,526
2017/07/11/16:11:58.796227,202644,1499760718,796076059,0,3931,2351,10099,12060,-394,2013,420
2017/07/11/16:11:58.805042,202645,1499760718,804857015,0,4031,2079,10195,11996,-459,2012,315
2017/07/11/16:11:58.819728,202646,1499760718,819540023,0,4144,1810,10286,11923,-497,2044,369
2017/07/11/16:11:58.842916,202647,1499760718,842611074,0,4276,1530,10347,11863,-545,2012,462
2017/07/11/16:11:58.864787,202648,1499760718,864608049,0,4410,1250,10387,11812,-649,1853,401
2017/07/11/16:11:58.880493,202649,1499760718,880315065,0,4556,985,10414,11757,-734,1808,280
2017/07/11/16:11:58.904968,202650,1499760718,904772996,0,4710,738,10446,11686,-764,1722,300
2017/07/11/16:11:58.925553,202651,1499760718,925204992,0,4857,506,10483,11605,-778,1754,344
2017/07/11/16:11:58.941443,202652,1499760718,941294908,0,5015,286,10487,11541,-824,1788,349
2017/07/11/16:11:58.962665,202653,1499760718,962317943,0,5171,72,10471,11490,-882,1717,314
2017/07/11/16:11:58.985750,202654,1499760718,984920024,0,5327,-128,10452,11436,-941,1584,337
2017/07/11/16:11:59.008603,202655,1499760719,8394002,0,5482,-312,10422,11386,-999,1600,360
2017/07/11/16:11:59.022429,202656,1499760719,22113084,0,5640,-479,10383,11338,-1024,1621,378
2017/07/11/16:11:59.045782,202657,1499760719,45288085,0,5793,-631,10330,11303,-1004,1595,401
2017/07/11/16:11:59.069502,202658,1499760719,69076061,0,5946,-773,10269,11270,-1101,1616,336
2017/07/11/16:11:59.084464,202659,1499760719,84326982,0,6099,-896,10201,11240,-1133,1582,361
2017/07/11/16:11:59.105289,202660,1499760719,104934930,0,6237,-1013,10112,11235,-1106,1593,450
2017/07/11/16:11:59.127583,202661,1499760719,127365112,0,6372,-1126,10015,11235,-1155,1500,512
2017/07/11/16:11:59.151069,202662,1499760719,150615930,0,6507,-1227,9916,11236,-1188,1434,513
2017/07/11/16:11:59.174241,202663,1499760719,173028945,0,6644,-1317,9813,11235,-1234,1476,477
2017/07/11/16:11:59.187531,202664,1499760719,187295913,0,6785,-1389,9712,11230,-1255,1456,499
2017/07/11/16:11:59.202596,202665,1499760719,202301025,0,6918,-1440,9601,11239,-1224,1420,529
2017/07/11/16:11:59.234263,202666,1499760719,233268976,0,7028,-1486,9468,11277,-1153,1429,660
2017/07/11/16:11:59.247868,202667,1499760719,247514009,0,7133,-1533,9322,11326,-1206,1345,628
2017/07/11/16:11:59.262225,202668,1499760719,262031078,0,7252,-1570,9184,11358,-1300,1250,614
2017/07/11/16:11:59.284765,202669,1499760719,284586906,0,7367,-1576,9054,11387,-1165,1262,703
2017/07/11/16:11:59.307541,202670,1499760719,307275056,0,7462,-1564,8928,11427,-1085,1354,698
2017/07/11/16:11:59.322897,202671,1499760719,322673082,0,7542,-1566,8779,11489,-1127,1306,755
2017/07/11/16:11:59.346648,202672,1499760719,346514940,0,7637,-1565,8631,11538,-1229,1140,797
2017/07/11/16:11:59.367503,202673,1499760719,367280006,0,7743,-1536,8506,11565,-1207,1106,861
2017/07/11/16:11:59.385219,202674,1499760719,384984970,0,7822,-1478,8400,11596,-1051,1304,823
2017/07/11/16:11:59.404871,202675,1499760719,404555082,0,7879,-1429,8271,11657,-1003,1342,830
2017/07/11/16:11:59.427381,202676,1499760719,427189111,0,7941,-1403,8118,11725,-1098,1112,935
2017/07/11/16:11:59.444205,202677,1499760719,444057941,0,8016,-1370,7989,11766,-1163,1054,958
2017/07/11/16:11:59.464969,202678,1499760719,464751958,0,8078,-1318,7870,11811,-1084,1208,1061
2017/07/11/16:11:59.487703,202679,1499760719,487505912,0,8128,-1274,7732,11871,-1009,1249,1040
2017/07/11/16:11:59.502695,202680,1499760719,502377033,0,8185,-1252,7575,11936,-1157,1116,1058
2017/07/11/16:11:59.525109,202681,1499760719,524898052,0,8246,-1219,7422,11993,-1129,1044,1090
2017/07/11/16:11:59.548095,202682,1499760719,547466039,0,8307,-1165,7283,12042,-948,1046,1146
2017/07/11/16:11:59.564670,202683,1499760719,564397096,0,8359,-1108,7146,12093,-958,1046,1270
2017/07/11/16:11:59.584775,202684,1499760719,584583997,0,8402,-1059,7025,12139,-1169,1056,1181
2017/07/11/16:11:59.607274,202685,1499760719,607070922,0,8437,-987,6908,12187,-1102,1056,1192
2017/07/11/16:11:59.624279,202686,1499760719,624157905,0,8458,-912,6788,12246,-934,1125,1223
2017/07/11/16:11:59.645590,202687,1499760719,645118951,0,8479,-850,6658,12308,-937,1044,1338
2017/07/11/16:11:59.675618,202688,1499760719,675309896,0,8503,-781,6549,12353,-988,988,1363
2017/07/11/16:11:59.682285,202689,1499760719,682123899,0,8523,-695,6463,12390,-994,1146,1336
2017/07/11/16:11:59.705183,202690,1499760719,704974889,0,8546,-615,6347,12438,-895,1195,1365
2017/07/11/16:11:59.727470,202691,1499760719,727241039,0,8567,-546,6226,12488,-841,1081,1414
2017/07/11/16:11:59.742360,202692,1499760719,742116928,0,8582,-487,6098,12543,-773,1070,1444
2017/07/11/16:11:59.765559,202693,1499760719,765101909,0,8610,-433,5970,12588,-823,1001,1477
2017/07/11/16:11:59.787653,202694,1499760719,787513017,0,8640,-366,5867,12618,-819,1062,1521
2017/07/11/16:11:59.802159,202695,1499760719,801990032,0,8660,-297,5763,12654,-757,1118,1478
2017/07/11/16:11:59.824823,202696,1499760719,824636936,0,8674,-248,5644,12699,-727,1022,1513
2017/07/11/16:11:59.847425,202697,1499760719,847084045,0,8696,-208,5516,12740,-685,951,1563
2017/07/11/16:11:59.862662,202698,1499760719,862194061,0,8720,-163,5404,12772,-700,974,1550
2017/07/11/16:11:59.885252,202699,1499760719,884902954,0,8740,-107,5307,12800,-681,1051,1532
2017/07/11/16:11:59.907371,202700,1499760719,907192945,0,8754,-54,5197,12836,-558,1019,1540
2017/07/11/16:11:59.922372,202701,1499760719,922151088,0,8771,-6,5096,12865,-612,865,1567
2017/07/11/16:11:59.945144,202702,1499760719,944864988,0,8786,58,5024,12883,-572,946,1594
2017/07/11/16:11:59.967449,202703,1499760719,967236042,0,8798,114,4950,12903,-556,1023,1621
2017/07/11/16:11:59.982552,202704,1499760719,982266902,0,8813,140,4850,12931,-586,916,1663
2017/07/11/16:12:00.007298,202705,1499760720,6975889,0,8824,178,4757,12957,-546,858,1641
2017/07/11/16:12:00.027647,202706,1499760720,27323007,0,8831,227,4691,12976,-526,917,1597
2017/07/11/16:12:00.042120,202707,1499760720,42011976,0,8836,267,4622,12996,-516,876,1615
2017/07/11/16:12:00.066794,202708,1499760720,66548109,0,8843,303,4542,13019,-476,868,1717
2017/07/11/16:12:00.087721,202709,1499760720,87482929,0,8851,341,4465,13039,-495,822,1718
2017/07/11/16:12:00.102768,202710,1499760720,102485895,0,8851,388,4405,13058,-438,834,1681
2017/07/11/16:12:00.124708,202711,1499760720,124515056,0,8849,428,4353,13076,-516,889,1656
2017/07/11/16:12:00.147903,202712,1499760720,147519111,0,8850,470,4289,13095,-435,907,1686
2017/07/11/16:12:00.178117,202713,1499760720,177850961,0,8852,506,4210,13117,-375,811,1750
2017/07/11/16:12:00.192868,202714,1499760720,192724943,0,8854,537,4158,13132,-487,812,1716
2017/07/11/16:12:00.207271,202715,1499760720,207045078,0,8853,575,4110,13146,-454,920,1717
2017/07/11/16:12:00.222338,202716,1499760720,222121000,0,8853,614,4043,13165,-401,862,1718
2017/07/11/16:12:00.245002,202717,1499760720,244772911,0,8852,658,3976,13183,-312,814,1806
2017/07/11/16:12:00.268070,202718,1499760720,267755031,0,8848,684,3924,13201,-342,809,1818
2017/07/11/16:12:00.284168,202719,1499760720,284045934,0,8848,709,3874,13214,-393,861,1713
2017/07/11/16:12:00.305242,202720,1499760720,304872989,0,8846,736,3818,13230,-327,913,1742
2017/07/11/16:12:00.328702,202721,1499760720,328510999,0,8845,753,3746,13250,-334,730,1814
2017/07/11/16:12:00.344358,202722,1499760720,344218969,0,8842,787,3715,13259,-293,657,1853
2017/07/11/16:12:00.373423,202723,1499760720,372997045,0,8832,822,3717,13264,-341,937,1768
2017/07/11/16:12:00.403766,202724,1499760720,403031110,0,8821,842,3674,13281,-296,859,1730
2017/07/11/16:12:00.409756,202725,1499760720,409540891,0,8815,864,3624,13297,-329,718,1745
2017/07/11/16:12:00.424731,202726,1499760720,424578905,0,8807,906,3598,13307,-143,807,1841
2017/07/11/16:12:00.456027,202727,1499760720,455663919,0,8799,903,3569,13320,-291,839,1761
2017/07/11/16:12:00.470508,202728,1499760720,470201969,0,8794,908,3532,13333,-335,736,1749
2017/07/11/16:12:00.484781,202729,1499760720,484639883,0,8786,936,3506,13343,-203,820,1777
2017/07/11/16:12:00.507203,202730,1499760720,507080078,0,8775,950,3474,13358,-175,695,1794
2017/07/11/16:12:00.522482,202731,1499760720,522200107,0,8760,967,3467,13368,-234,757,1721
2017/07/11/16:12:00.545028,202732,1499760720,544735908,0,8749,981,3460,13376,-197,852,1709
2017/07/11/16:12:00.567353,202733,1499760720,567204952,0,8735,991,3438,13390,-241,749,1749
2017/07/11/16:12:00.582384,202734,1499760720,582159996,0,8719,1011,3430,13402,-175,799,1764
2017/07/11/16:12:00.605065,202735,1499760720,604641914,0,8706,1011,3415,13414,-215,800,1813
2017/07/11/16:12:00.627903,202736,1499760720,627679109,0,8696,1004,3400,13425,-322,740,1749
2017/07/11/16:12:00.642801,202737,1499760720,642579078,0,8686,1022,3394,13431,-211,864,1766
2017/07/11/16:12:00.672199,202738,1499760720,672071933,0,8675,1032,3385,13440,-188,832,1813
2017/07/11/16:12:00.687808,202739,1499760720,687530040,0,8663,1031,3382,13449,-258,759,1784
2017/07/11/16:12:00.710003,202740,1499760720,709789991,0,8656,1036,3386,13452,-245,835,1813
2017/07/11/16:12:00.725389,202741,1499760720,725043058,0,8651,1041,3385,13455,-270,827,1800
2017/07/11/16:12:00.747541,202742,1499760720,747246026,0,8643,1050,3384,13459,-227,846,1784
2017/07/11/16:12:00.770025,202743,1499760720,769723892,0,8639,1053,3378,13463,-176,817,1736
2017/07/11/16:12:00.785485,202744,1499760720,785115957,0,8640,1038,3366,13466,-171,763,1786
2017/07/11/16:12:00.808106,202745,1499760720,807554960,0,8641,1036,3365,13467,-273,693,1825
2017/07/11/16:12:00.830117,202746,1499760720,830003976,0,8637,1048,3373,13466,-228,785,1795
2017/07/11/16:12:00.845257,202747,1499760720,844999074,0,8633,1056,3366,13470,-160,805,1747
2017/07/11/16:12:00.867795,202748,1499760720,867491006,0,8632,1052,3356,13473,-220,707,1811
2017/07/11/16:12:00.897886,202749,1499760720,897692918,0,8630,1064,3359,13473,-215,719,1808
2017/07/11/16:12:00.904705,202750,1499760720,904520988,0,8621,1079,3371,13474,-223,836,1734
2017/07/11/16:12:00.928102,202751,1499760720,927540063,0,8614,1077,3366,13480,-188,826,1772
2017/07/11/16:12:00.950891,202752,1499760720,950768947,0,8613,1063,3351,13486,-225,661,1845
2017/07/11/16:12:00.964704,202753,1499760720,964509963,0,8608,1072,3372,13483,-253,777,1786
2017/07/11/16:12:00.987199,202754,1499760720,987051010,0,8601,1080,3374,13486,-149,953,1713
2017/07/11/16:12:01.009962,202755,1499760721,9780883,0,8595,1067,3351,13497,-192,681,1743
2017/07/11/16:12:01.024751,202756,1499760721,24602890,0,8594,1068,3360,13495,-219,738,1876
2017/07/11/16:12:01.047467,202757,1499760721,47193050,0,8590,1081,3383,13491,-236,873,1810
2017/07/11/16:12:01.069935,202758,1499760721,69586992,0,8589,1080,3376,13494,-189,868,1722
2017/07/11/16:12:01.084985,202759,1499760721,84703922,0,8591,1074,3365,13496,-190,723,1729
2017/07/11/16:12:01.116323,202760,1499760721,115329027,0,8590,1082,3379,13492,-203,803,1793
2017/07/11/16:12:01.129864,202761,1499760721,129636049,0,8588,1080,3388,13491,-210,788,1842
2017/07/11/16:12:01.145059,202762,1499760721,144685029,0,8588,1072,3384,13493,-221,724,1753
2017/07/11/16:12:01.176085,202763,1499760721,175400018,0,8586,1076,3388,13493,-187,757,1697
2017/07/11/16:12:01.190215,202764,1499760721,190030097,0,8584,1078,3398,13492,-224,802,1774
2017/07/11/16:12:01.204610,202765,1499760721,204479932,0,8578,1075,3403,13494,-265,795,1803
2017/07/11/16:12:01.229091,202766,1499760721,228904962,0,8575,1078,3404,13495,-206,804,1747
2017/07/11/16:12:01.250458,202767,1499760721,250034093,0,8575,1073,3399,13497,-207,815,1742
2017/07/11/16:12:01.265274,202768,1499760721,264991998,0,8573,1077,3405,13497,-239,763,1753
2017/07/11/16:12:01.287346,202769,1499760721,287127017,0,8570,1092,3422,13493,-166,895,1759
