time,.header.seq,.header.stamp.secs,.header.stamp.nsecs,.header.frame_id,.quat0,.quat1,.quat2,.quat3,.acc0,.acc1,.acc2
2017/07/11/16:14:21.177661,209754,1499760861,177370071,0,3834,4334,9811,11775,409,2206,394
2017/07/11/16:14:21.200089,209755,1499760861,199918985,0,3777,4171,9797,11864,143,2573,364
2017/07/11/16:14:21.215225,209756,1499760861,215060949,0,3775,3986,9795,11930,-22,2050,260
2017/07/11/16:14:21.237923,209757,1499760861,237497091,0,3761,3821,9827,11962,183,1792,335
2017/07/11/16:14:21.260912,209758,1499760861,260337114,0,3748,3641,9916,11949,84,1865,387
2017/07/11/16:14:21.275548,209759,1499760861,275218009,0,3728,3457,10035,11910,-23,2072,322
2017/07/11/16:14:21.297891,209760,1499760861,297637939,0,3713,3267,10130,11889,-46,2179,286
2017/07/11/16:14:21.320510,209761,1499760861,320183038,0,3708,3058,10184,11899,-57,2138,297
2017/07/11/16:14:21.335680,209762,1499760861,335205078,0,3699,2837,10231,11917,-96,1984,309
2017/07/11/16:14:21.358080,209763,1499760861,357870101,0,3696,2606,10285,11923,-233,1945,287
2017/07/11/16:14:21.380154,209764,1499760861,379892110,0,3707,2380,10351,11911,-320,1976,286
2017/07/11/16:14:21.395249,209765,1499760861,394957065,0,3729,2161,10406,11897,-307,1947,310
2017/07/11/16:14:21.417621,209766,1499760861,417412996,0,3757,1940,10453,11886,-357,1934,295
2017/07/11/16:14:21.442774,209767,1499760861,442545890,0,3790,1721,10496,11871,-418,1899,294
2017/07/11/16:14:21.455116,209768,1499760861,454874038,0,3833,1509,10539,11847,-500,1951,236
2017/07/11/16:14:21.478502,209769,1499760861,478039026,0,3891,1312,10566,11828,-527,1960,248
2017/07/11/16:14:21.500372,209770,1499760861,500061988,0,3956,1124,10571,11822,-538,1910,280
2017/07/11/16:14:21.515400,209771,1499760861,515177965,0,4029,935,10572,11813,-596,1876,325
2017/07/11/16:14:21.537871,209772,1499760861,537581920,0,4107,755,10580,11792,-639,1838,309
2017/07/11/16:14:21.560756,209773,1499760861,560394048,0,4200,580,10582,11766,-694,1872,313
2017/07/11/16:14:21.575675,209774,1499760861,575309991,0,4302,411,10571,11747,-747,1899,321
2017/07/11/16:14:21.597574,209775,1499760861,597421884,0,4400,254,10546,11737,-762,1866,282
2017/07/11/16:14:21.620003,209776,1499760861,619813919,0,4513,101,10514,11726,-799,1837,268
2017/07/11/16:14:21.635410,209777,1499760861,635143995,0,4625,-37,10491,11703,-813,1755,341
2017/07/11/16:14:21.657815,209778,1499760861,657592058,0,4725,-158,10454,11694,-835,1808,407
2017/07/11/16:14:21.683383,209779,1499760861,683130025,0,4822,-276,10397,11704,-893,1837,372
2017/07/11/16:14:21.695069,209780,1499760861,694897890,0,4922,-389,10326,11722,-913,1748,330
2017/07/11/16:14:21.718091,209781,1499760861,717797040,0,5033,-491,10254,11734,-921,1663,388
2017/07/11/16:14:21.740467,209782,1499760861,740081071,0,5150,-587,10180,11743,-938,1653,461
2017/07/11/16:14:21.762568,209783,1499760861,762325048,0,5266,-676,10096,11760,-933,1703,474
2017/07/11/16:14:21.785475,209784,1499760861,785207986,0,5379,-771,9993,11791,-947,1712,500
2017/07/11/16:14:21.800600,209785,1499760861,800331115,0,5490,-861,9877,11831,-999,1673,487
2017/07/11/16:14:21.823032,209786,1499760861,822798013,0,5609,-936,9763,11863,-1043,1581,499
2017/07/11/16:14:21.837711,209787,1499760861,837459087,0,5723,-995,9649,11898,-962,1561,565
2017/07/11/16:14:21.860287,209788,1499760861,860095977,0,5843,-1058,9522,11936,-974,1560,674
2017/07/11/16:14:21.882754,209789,1499760861,882360935,0,5968,-1115,9398,11968,-1028,1538,680
2017/07/11/16:14:21.897553,209790,1499760861,897378921,0,6090,-1158,9286,11990,-1072,1582,643
2017/07/11/16:14:21.920104,209791,1499760861,919943094,0,6198,-1190,9157,12030,-1004,1581,668
2017/07/11/16:14:21.943076,209792,1499760861,942725896,0,6291,-1218,9006,12093,-944,1453,754
2017/07/11/16:14:21.957593,209793,1499760861,957403898,0,6394,-1256,8855,12147,-999,1369,811
2017/07/11/16:14:21.980174,209794,1499760861,979948997,0,6513,-1284,8723,12176,-1110,1316,833
2017/07/11/16:14:22.002722,209795,1499760862,2568960,0,6623,-1293,8599,12204,-1059,1409,878
2017/07/11/16:14:22.017567,209796,1499760862,17425060,0,6708,-1291,8462,12253,-950,1537,809
2017/07/11/16:14:22.040731,209797,1499760862,40577888,0,6785,-1315,8279,12333,-892,1364,910
2017/07/11/16:14:22.064655,209798,1499760862,64241886,0,6882,-1346,8100,12395,-1042,1152,952
2017/07/11/16:14:22.078354,209799,1499760862,77960968,0,6981,-1349,7960,12430,-1038,1163,1020
2017/07/11/16:14:22.100043,209800,1499760862,99834918,0,7057,-1340,7834,12468,-952,1402,1018
2017/07/11/16:14:22.123102,209801,1499760862,122848033,0,7128,-1351,7669,12529,-967,1399,1057
2017/07/11/16:14:22.145598,209802,1499760862,145157098,0,7210,-1379,7483,12591,-1051,1115,1108
2017/07/11/16:14:22.160062,209803,1499760862,159842967,0,7291,-1389,7319,12639,-1069,1127,1160
2017/07/11/16:14:22.182513,209804,1499760862,182327985,0,7363,-1374,7184,12677,-953,1199,1131
2017/07/11/16:14:22.197464,209805,1499760862,197278976,0,7417,-1368,7033,12730,-866,1215,1186
2017/07/11/16:14:22.220607,209806,1499760862,220369100,0,7482,-1373,6870,12781,-973,1038,1241
2017/07/11/16:14:22.243056,209807,1499760862,242697000,0,7549,-1370,6717,12823,-1010,973,1289
2017/07/11/16:14:22.258268,209808,1499760862,257821083,0,7607,-1354,6585,12859,-953,1055,1269
2017/07/11/16:14:22.280168,209809,1499760862,279953956,0,7654,-1345,6439,12906,-914,1105,1288
2017/07/11/16:14:22.303750,209810,1499760862,302391052,0,7707,-1345,6268,12958,-964,1013,1366
2017/07/11/16:14:22.318058,209811,1499760862,317852020,0,7753,-1340,6109,13007,-953,929,1394
2017/07/11/16:14:22.340210,209812,1499760862,340013027,0,7802,-1330,5954,13051,-913,923,1372
2017/07/11/16:14:22.363061,209813,1499760862,362742900,0,7853,-1319,5798,13091,-919,919,1445
2017/07/11/16:14:22.387874,209814,1499760862,387481927,0,7902,-1298,5647,13130,-929,942,1448
2017/07/11/16:14:22.400957,209815,1499760862,400779008,0,7946,-1269,5491,13172,-817,814,1472
2017/07/11/16:14:22.422887,209816,1499760862,422660112,0,7985,-1233,5346,13211,-810,773,1488
2017/07/11/16:14:22.437359,209817,1499760862,437246084,0,8020,-1194,5217,13246,-742,895,1489
2017/07/11/16:14:22.460155,209818,1499760862,459855079,0,8057,-1159,5072,13283,-782,851,1570
2017/07/11/16:14:22.491901,209819,1499760862,491043090,0,8090,-1128,4940,13315,-811,781,1577
2017/07/11/16:14:22.497559,209820,1499760862,497412919,0,8111,-1083,4813,13352,-700,754,1593
2017/07/11/16:14:22.520299,209821,1499760862,519948959,0,8131,-1048,4682,13389,-654,724,1643
2017/07/11/16:14:22.543240,209822,1499760862,542916059,0,8158,-1013,4561,13417,-791,717,1658
2017/07/11/16:14:22.557849,209823,1499760862,557575941,0,8181,-963,4459,13442,-733,711,1668
2017/07/11/16:14:22.588189,209824,1499760862,588032960,0,8192,-907,4352,13474,-618,732,1697
2017/07/11/16:14:22.611378,209825,1499760862,610940933,0,8202,-864,4234,13508,-606,641,1770
2017/07/11/16:14:22.618056,209826,1499760862,617746114,0,8220,-813,4149,13526,-761,570,1668
2017/07/11/16:14:22.642275,209827,1499760862,642036914,0,8227,-726,4095,13544,-633,693,1708
2017/07/11/16:14:22.662647,209828,1499760862,662384986,0,8220,-647,4018,13575,-465,777,1747
2017/07/11/16:14:22.677853,209829,1499760862,677617073,0,8216,-597,3912,13611,-499,560,1788
2017/07/11/16:14:22.700123,209830,1499760862,699924945,0,8217,-548,3838,13633,-643,512,1793
2017/07/11/16:14:22.722440,209831,1499760862,722285985,0,8220,-478,3782,13650,-640,776,1760
2017/07/11/16:14:22.745373,209832,1499760862,745079994,0,8219,-408,3699,13675,-462,753,1714
2017/07/11/16:14:22.760700,209833,1499760862,760272979,0,8207,-354,3599,13710,-392,603,1787
2017/07/11/16:14:22.782799,209834,1499760862,782560110,0,8197,-307,3520,13738,-456,600,1800
2017/07/11/16:14:22.805377,209835,1499760862,805099964,0,8194,-255,3453,13758,-511,601,1812
2017/07/11/16:14:22.820019,209836,1499760862,819797992,0,8186,-190,3390,13779,-438,674,1865
2017/07/11/16:14:22.842733,209837,1499760862,842401981,0,8174,-132,3314,13806,-382,667,1807
2017/07/11/16:14:22.865644,209838,1499760862,865367889,0,8166,-92,3220,13833,-360,550,1856
2017/07/11/16:14:22.880060,209839,1499760862,879918098,0,8162,-43,3161,13849,-406,590,1831
2017/07/11/16:14:22.902842,209840,1499760862,902518033,0,8153,22,3110,13866,-313,629,1866
2017/07/11/16:14:22.925465,209841,1499760862,924963951,0,8138,72,3054,13887,-311,632,1854
2017/07/11/16:14:22.940109,209842,1499760862,939980030,0,8128,114,2998,13905,-301,538,1852
2017/07/11/16:14:22.962483,209843,1499760862,962316036,0,8120,160,2953,13918,-319,582,1890
2017/07/11/16:14:22.985968,209844,1499760862,985573053,0,8108,207,2919,13932,-263,672,1940
2017/07/11/16:14:23.000566,209845,1499760863,315904,0,8094,242,2872,13950,-266,583,1913
2017/07/11/16:14:23.023480,209846,1499760863,22927999,0,8084,268,2827,13964,-235,588,1903
2017/07/11/16:14:23.045091,209847,1499760863,44852972,0,8078,297,2793,13974,-205,603,1897
2017/07/11/16:14:23.060470,209848,1499760863,60179948,0,8074,321,2766,13981,-276,615,1891
2017/07/11/16:14:23.082559,209849,1499760863,82362890,0,8066,352,2742,13990,-238,624,1891
2017/07/11/16:14:23.105589,209850,1499760863,105356931,0,8055,378,2711,14001,-198,617,1828
2017/07/11/16:14:23.120311,209851,1499760863,120099067,0,8049,403,2681,14010,-125,525,1886
2017/07/11/16:14:23.143007,209852,1499760863,142745971,0,8048,422,2668,14012,-182,587,1887
2017/07/11/16:14:23.165200,209853,1499760863,164944887,0,8046,437,2661,14014,-189,659,1851
2017/07/11/16:14:23.180570,209854,1499760863,180322885,0,8045,444,2634,14020,-175,578,1865
2017/07/11/16:14:23.203098,209855,1499760863,202620983,0,8045,450,2612,14024,-185,519,1868
2017/07/11/16:14:23.225107,209856,1499760863,224880933,0,8045,463,2603,14025,-188,579,1891
2017/07/11/16:14:23.240604,209857,1499760863,240192890,0,8045,472,2594,14026,-208,525,1921
2017/07/11/16:14:23.262577,209858,1499760863,262417078,0,8044,486,2595,14026,-226,594,1890
2017/07/11/16:14:23.285470,209859,1499760863,285082101,0,8041,504,2589,14028,-187,592,1878
2017/07/11/16:14:23.300314,209860,1499760863,300045967,0,8038,516,2576,14032,-168,535,1858
2017/07/11/16:14:23.323150,209861,1499760863,322740077,0,8037,522,2567,14034,-192,545,1894
2017/07/11/16:14:23.345484,209862,1499760863,345227956,0,8036,529,2569,14034,-200,593,1895
2017/07/11/16:14:23.359905,209863,1499760863,359807968,0,8036,526,2557,14036,-209,623,1890
2017/07/11/16:14:23.382911,209864,1499760863,382766008,0,8037,525,2539,14039,-188,482,1878
2017/07/11/16:14:23.406844,209865,1499760863,406486988,0,8035,538,2540,14040,-162,537,1889
2017/07/11/16:14:23.420467,209866,1499760863,420094966,0,8031,547,2549,14040,-194,593,1856
2017/07/11/16:14:23.443052,209867,1499760863,442745923,0,8028,549,2550,14041,-191,621,1876
2017/07/11/16:14:23.465265,209868,1499760863,465068101,0,8028,549,2542,14043,-188,520,1865
2017/07/11/16:14:23.480926,209869,1499760863,480757951,0,8026,560,2547,14042,-157,584,1883
2017/07/11/16:14:23.503024,209870,1499760863,502754926,0,8026,560,2548,14042,-175,620,1855
2017/07/11/16:14:23.525190,209871,1499760863,525008916,0,8025,551,2541,14045,-211,530,1841
2017/07/11/16:14:23.540441,209872,1499760863,540210008,0,8023,553,2549,14044,-194,579,1806
2017/07/11/16:14:23.562943,209873,1499760863,562669038,0,8022,553,2548,14045,-171,614,1873
2017/07/11/16:14:23.585944,209874,1499760863,585486888,0,8023,545,2534,14047,-184,508,1901
2017/07/11/16:14:23.599955,209875,1499760863,599781036,0,8023,545,2534,14047,-186,565,1848
2017/07/11/16:14:23.622841,209876,1499760863,622539997,0,8019,552,2534,14049,-159,600,1832
2017/07/11/16:14:23.645571,209877,1499760863,645245075,0,8018,548,2524,14052,-170,552,1871
2017/07/11/16:14:23.660480,209878,1499760863,660209894,0,8016,543,2518,14054,-183,550,1865
2017/07/11/16:14:23.682841,209879,1499760863,682578086,0,8015,537,2506,14057,-149,578,1848
2017/07/11/16:14:23.705509,209880,1499760863,705207109,0,8016,527,2494,14059,-194,533,1867
2017/07/11/16:14:23.720469,209881,1499760863,720144987,0,8016,526,2494,14059,-197,557,1896
2017/07/11/16:14:23.742985,209882,1499760863,742733001,0,8012,529,2502,14060,-209,598,1844
2017/07/11/16:14:23.764932,209883,1499760863,764812946,0,8008,532,2505,14062,-174,573,1860
2017/07/11/16:14:23.781358,209884,1499760863,780318021,0,8008,531,2504,14062,-158,582,1867
2017/07/11/16:14:23.802563,209885,1499760863,802422046,0,8011,523,2497,14062,-194,541,1901
2017/07/11/16:14:23.825197,209886,1499760863,824918031,0,8011,519,2500,14061,-199,551,1873
2017/07/11/16:14:23.840323,209887,1499760863,840055942,0,8011,519,2500,14061,-182,555,1846
2017/07/11/16:14:23.862584,209888,1499760863,862446069,0,8011,519,2499,14061,-176,553,1850
2017/07/11/16:14:23.885339,209889,1499760863,885086059,0,8012,511,2491,14063,-173,580,1883
2017/07/11/16:14:23.907680,209890,1499760863,907457113,0,8012,509,2489,14063,-205,473,1881
2017/07/11/16:14:23.923089,209891,1499760863,922647953,0,8011,517,2499,14061,-172,573,1848
2017/07/11/16:14:23.945691,209892,1499760863,945210933,0,8011,517,2500,14061,-174,600,1840
2017/07/11/16:14:23.968210,209893,1499760863,967901945,0,8012,509,2490,14063,-192,505,1865
2017/07/11/16:14:23.982586,209894,1499760863,982439041,0,8011,510,2496,14062,-204,485,1841
2017/07/11/16:14:24.005313,209895,1499760864,4929065,0,8009,519,2508,14061,-141,609,1835
2017/07/11/16:14:24.028606,209896,1499760864,27604103,0,8007,507,2492,14065,-183,566,1867
2017/07/11/16:14:24.042761,209897,1499760864,42439937,0,8005,495,2477,14069,-240,443,1888
2017/07/11/16:14:24.065312,209898,1499760864,65036058,0,8002,504,2490,14069,-221,544,1835
2017/07/11/16:14:24.089177,209899,1499760864,88402986,0,7997,514,2495,14070,-137,643,1848
