time,.header.seq,.header.stamp.secs,.header.stamp.nsecs,.header.frame_id,.ch0,.ch1,.ch2,.ch3,.ch4,.ch5,.ch6,.ch7
2017/07/11/15:50:08.313763,138485,1499759408,313666105,0,404,248,93,43,78,32,52,222
2017/07/11/15:50:08.327604,138486,1499759408,327306032,0,493,280,122,47,82,33,55,252
2017/07/11/15:50:08.350380,138487,1499759408,349997043,0,424,299,110,47,84,33,51,205
2017/07/11/15:50:08.373677,138488,1499759408,373462915,0,437,296,108,49,86,34,48,193
2017/07/11/15:50:08.387476,138489,1499759408,387253046,0,463,315,113,56,88,33,46,172
2017/07/11/15:50:08.417075,138490,1499759408,416899919,0,449,331,129,59,57,34,47,175
2017/07/11/15:50:08.456273,138491,1499759408,454648971,0,301,297,104,58,53,33,40,117
2017/07/11/15:50:08.456290,138492,1499759408,455984115,0,363,243,107,60,51,33,39,112
2017/07/11/15:50:08.469743,138493,1499759408,469485044,0,342,236,108,60,47,35,38,115
2017/07/11/15:50:08.492652,138494,1499759408,492394924,0,307,250,117,55,45,35,39,121
2017/07/11/15:50:08.507854,138495,1499759408,507591962,0,350,223,94,58,48,45,38,122
2017/07/11/15:50:08.529676,138496,1499759408,529453992,0,416,275,98,58,53,46,42,129
2017/07/11/15:50:08.552341,138497,1499759408,552052974,0,400,269,100,56,51,47,44,140
2017/07/11/15:50:08.568622,138498,1499759408,568361997,0,401,280,106,55,51,49,50,156
2017/07/11/15:50:08.597441,138499,1499759408,597194910,0,407,315,125,64,89,51,50,148
2017/07/11/15:50:08.612708,138500,1499759408,612459897,0,397,375,135,63,87,51,53,143
2017/07/11/15:50:08.627196,138501,1499759408,627032995,0,366,360,135,74,98,66,57,140
2017/07/11/15:50:08.651160,138502,1499759408,650966882,0,506,373,145,93,116,74,59,168
2017/07/11/15:50:08.682185,138503,1499759408,681829929,0,623,429,154,103,120,83,61,171
2017/07/11/15:50:08.687331,138504,1499759408,687138080,0,647,422,141,101,102,88,61,176
2017/07/11/15:50:08.709491,138505,1499759408,709323883,0,681,369,135,102,122,93,58,180
2017/07/11/15:50:08.732683,138506,1499759408,732409000,0,684,362,133,93,130,95,57,173
2017/07/11/15:50:08.748569,138507,1499759408,748298883,0,595,352,123,76,127,91,56,137
2017/07/11/15:50:08.769786,138508,1499759408,769571065,0,532,309,123,76,135,83,49,112
2017/07/11/15:50:08.792069,138509,1499759408,791918992,0,538,324,125,83,145,88,57,104
2017/07/11/15:50:08.807528,138510,1499759408,807344913,0,625,462,173,97,130,91,61,127
2017/07/11/15:50:08.830093,138511,1499759408,829826116,0,629,471,185,106,129,86,62,145
2017/07/11/15:50:08.852739,138512,1499759408,852415084,0,667,511,194,110,205,89,62,160
2017/07/11/15:50:08.868428,138513,1499759408,867908000,0,648,500,191,112,221,97,66,165
2017/07/11/15:50:08.889532,138514,1499759408,889363050,0,656,497,185,112,224,106,64,181
2017/07/11/15:50:08.912479,138515,1499759408,912139892,0,576,398,158,97,229,105,64,173
2017/07/11/15:50:08.927574,138516,1499759408,927412986,0,613,385,146,89,245,101,61,172
2017/07/11/15:50:08.950086,138517,1499759408,949805021,0,557,336,140,93,199,102,65,189
2017/07/11/15:50:08.972728,138518,1499759408,972383975,0,666,373,134,95,182,95,61,192
2017/07/11/15:50:08.987082,138519,1499759408,986891031,0,689,340,132,93,171,80,57,190
2017/07/11/15:50:09.009844,138520,1499759409,9592056,0,669,347,124,91,166,66,60,203
2017/07/11/15:50:09.032669,138521,1499759409,32227993,0,639,359,126,93,131,64,60,194
2017/07/11/15:50:09.047457,138522,1499759409,47117948,0,649,360,125,102,165,66,51,168
2017/07/11/15:50:09.070192,138523,1499759409,69889068,0,552,317,138,97,170,63,52,175
2017/07/11/15:50:09.093829,138524,1499759409,93611955,0,552,304,137,90,172,60,52,170
2017/07/11/15:50:09.107077,138525,1499759409,106914043,0,617,270,129,90,192,60,61,177
2017/07/11/15:50:09.139509,138526,1499759409,139264106,0,597,239,124,88,191,63,61,176
2017/07/11/15:50:09.152915,138527,1499759409,152415037,0,645,225,108,72,147,56,63,174
2017/07/11/15:50:09.167798,138528,1499759409,167368888,0,610,228,99,66,153,56,64,159
2017/07/11/15:50:09.190025,138529,1499759409,189754009,0,620,240,138,70,152,54,64,171
2017/07/11/15:50:09.212266,138530,1499759409,212110996,0,533,212,133,70,143,53,48,150
2017/07/11/15:50:09.235152,138531,1499759409,234884977,0,587,216,132,66,143,52,53,152
2017/07/11/15:50:09.250301,138532,1499759409,249990940,0,561,208,139,65,140,48,52,148
2017/07/11/15:50:09.272602,138533,1499759409,272396087,0,698,196,132,66,130,54,56,179
2017/07/11/15:50:09.294912,138534,1499759409,294680118,0,643,182,82,68,183,56,59,166
2017/07/11/15:50:09.310373,138535,1499759409,309715986,0,704,211,88,78,173,73,64,171
2017/07/11/15:50:09.339724,138536,1499759409,339533090,0,737,216,90,81,179,75,69,193
2017/07/11/15:50:09.355100,138537,1499759409,354656934,0,707,213,82,81,229,94,72,211
2017/07/11/15:50:09.377147,138538,1499759409,376986026,0,583,246,77,91,229,101,69,180
2017/07/11/15:50:09.392072,138539,1499759409,391949892,0,647,233,82,87,193,101,67,202
2017/07/11/15:50:09.414903,138540,1499759409,414627075,0,636,231,79,80,205,91,67,221
2017/07/11/15:50:09.430402,138541,1499759409,429996013,0,609,218,81,80,229,94,75,220
2017/07/11/15:50:09.452722,138542,1499759409,452514886,0,641,220,83,80,186,78,90,214
2017/07/11/15:50:09.474482,138543,1499759409,474340915,0,671,212,94,71,226,75,91,222
2017/07/11/15:50:09.489747,138544,1499759409,489545106,0,658,215,101,71,230,74,94,245
2017/07/11/15:50:09.512558,138545,1499759409,512089967,0,712,240,114,73,224,74,92,248
2017/07/11/15:50:09.535016,138546,1499759409,534775018,0,692,303,138,76,206,116,88,252
2017/07/11/15:50:09.550160,138547,1499759409,549770116,0,737,308,139,73,207,143,94,269
2017/07/11/15:50:09.572200,138548,1499759409,572010993,0,720,291,133,94,193,144,102,280
2017/07/11/15:50:09.596608,138549,1499759409,596400022,0,710,297,129,92,187,144,101,300
2017/07/11/15:50:09.617795,138550,1499759409,617358922,0,675,259,111,92,180,144,100,298
2017/07/11/15:50:09.632309,138551,1499759409,632026910,0,661,179,76,88,174,108,97,302
2017/07/11/15:50:09.655576,138552,1499759409,654933929,0,595,167,73,96,227,81,112,304
2017/07/11/15:50:09.669681,138553,1499759409,669480085,0,663,197,71,73,199,119,112,326
2017/07/11/15:50:09.692739,138554,1499759409,692306995,0,658,192,72,73,199,127,111,290
2017/07/11/15:50:09.715110,138555,1499759409,714839935,0,583,196,75,73,216,133,113,281
2017/07/11/15:50:09.730170,138556,1499759409,729876041,0,573,226,91,115,241,144,111,285
2017/07/11/15:50:09.752434,138557,1499759409,752206087,0,572,219,95,121,202,142,72,279
2017/07/11/15:50:09.774716,138558,1499759409,774534940,0,606,211,95,122,207,140,70,325
2017/07/11/15:50:09.789822,138559,1499759409,789645910,0,609,218,105,126,211,210,86,329
2017/07/11/15:50:09.820209,138560,1499759409,819842100,0,630,212,108,124,205,214,89,332
2017/07/11/15:50:09.835238,138561,1499759409,834889888,0,655,193,95,97,251,213,91,323
2017/07/11/15:50:09.850302,138562,1499759409,849786996,0,789,247,98,81,255,217,100,354
2017/07/11/15:50:09.872093,138563,1499759409,871887922,0,803,279,110,78,245,202,103,308
2017/07/11/15:50:09.894837,138564,1499759409,894648075,0,818,278,106,93,267,130,97,341
2017/07/11/15:50:09.910501,138565,1499759409,910022020,0,798,283,111,112,274,169,99,364
2017/07/11/15:50:09.940281,138566,1499759409,939763069,0,784,273,109,105,224,164,101,396
2017/07/11/15:50:09.956051,138567,1499759409,955830097,0,708,262,117,104,202,166,95,393
2017/07/11/15:50:09.986315,138568,1499759409,985124111,0,695,245,119,105,215,163,106,443
2017/07/11/15:50:09.993428,138569,1499759409,993160009,0,703,235,115,100,258,158,105,427
2017/07/11/15:50:10.015461,138570,1499759410,14834880,0,727,228,108,89,261,113,111,438
2017/07/11/15:50:10.029748,138571,1499759410,29570102,0,756,262,116,93,248,153,118,436
2017/07/11/15:50:10.052171,138572,1499759410,52058935,0,759,240,120,101,258,148,125,436
2017/07/11/15:50:10.075151,138573,1499759410,74769020,0,714,224,106,115,351,161,127,391
2017/07/11/15:50:10.097152,138574,1499759410,96929073,0,768,278,125,106,356,179,136,406
2017/07/11/15:50:10.112429,138575,1499759410,112180948,0,825,341,136,104,352,186,140,423
2017/07/11/15:50:10.135093,138576,1499759410,134857892,0,882,387,185,109,350,166,146,421
2017/07/11/15:50:10.157039,138577,1499759410,156857967,0,895,398,186,110,404,214,147,433
2017/07/11/15:50:10.172677,138578,1499759410,172277927,0,901,400,191,93,345,239,148,455
2017/07/11/15:50:10.195261,138579,1499759410,194881916,0,863,380,191,101,287,240,149,497
2017/07/11/15:50:10.217367,138580,1499759410,217128038,0,887,339,183,102,281,237,145,503
2017/07/11/15:50:10.232635,138581,1499759410,232348918,0,843,299,148,108,323,237,142,503
2017/07/11/15:50:10.254573,138582,1499759410,254390001,0,847,327,156,114,253,202,152,522
2017/07/11/15:50:10.277682,138583,1499759410,277388095,0,842,327,155,122,223,199,160,539
2017/07/11/15:50:10.292868,138584,1499759410,292464017,0,840,419,195,131,253,198,151,501
2017/07/11/15:50:10.315472,138585,1499759410,315108060,0,791,418,193,133,259,197,152,454
2017/07/11/15:50:10.339539,138586,1499759410,339401006,0,748,393,185,134,221,189,146,442
2017/07/11/15:50:10.352161,138587,1499759410,351994037,0,751,365,177,129,218,178,129,423
2017/07/11/15:50:10.375075,138588,1499759410,374866008,0,800,422,209,143,226,131,103,397
2017/07/11/15:50:10.396989,138589,1499759410,396811008,0,809,349,169,145,218,101,103,376
2017/07/11/15:50:10.413450,138590,1499759410,413192987,0,765,339,171,146,211,131,95,367
2017/07/11/15:50:10.434528,138591,1499759410,434398889,0,811,355,170,139,190,138,95,375
2017/07/11/15:50:10.457639,138592,1499759410,457365989,0,752,364,203,132,179,138,97,376
2017/07/11/15:50:10.472375,138593,1499759410,472182035,0,653,286,169,109,180,142,103,386
2017/07/11/15:50:10.494806,138594,1499759410,494609117,0,598,244,159,90,157,148,100,395
2017/07/11/15:50:10.517838,138595,1499759410,517386913,0,605,242,163,79,163,111,100,414
2017/07/11/15:50:10.540094,138596,1499759410,539828062,0,646,238,168,81,173,99,97,416
2017/07/11/15:50:10.554678,138597,1499759410,554505109,0,668,201,110,81,175,96,95,393
2017/07/11/15:50:10.577284,138598,1499759410,577058076,0,677,214,126,112,199,97,88,342
2017/07/11/15:50:10.592979,138599,1499759410,592402935,0,680,216,127,113,200,87,91,350
2017/07/11/15:50:10.614694,138600,1499759410,614490985,0,710,216,121,125,214,92,86,331
2017/07/11/15:50:10.637598,138601,1499759410,637486934,0,667,208,112,122,215,100,97,328
2017/07/11/15:50:10.652316,138602,1499759410,652018070,0,620,214,112,121,215,101,100,320
2017/07/11/15:50:10.674622,138603,1499759410,674443960,0,611,204,89,92,181,91,94,323
2017/07/11/15:50:10.698141,138604,1499759410,697813987,0,626,201,95,111,206,97,100,310
2017/07/11/15:50:10.712029,138605,1499759410,711893081,0,625,204,96,107,199,92,98,309
2017/07/11/15:50:10.734489,138606,1499759410,734384059,0,627,215,91,105,200,85,78,281
2017/07/11/15:50:10.757795,138607,1499759410,757510900,0,724,221,87,102,198,79,78,275
2017/07/11/15:50:10.773716,138608,1499759410,773338079,0,722,207,86,105,194,92,79,263
2017/07/11/15:50:10.794744,138609,1499759410,794615030,0,706,197,74,102,210,82,66,283
2017/07/11/15:50:10.817449,138610,1499759410,817269086,0,722,224,96,106,200,83,69,276
2017/07/11/15:50:10.832378,138611,1499759410,832195997,0,722,235,108,109,214,85,80,290
2017/07/11/15:50:10.854602,138612,1499759410,854443073,0,623,223,110,113,215,85,76,309
2017/07/11/15:50:10.877280,138613,1499759410,877031087,0,625,219,112,122,222,78,78,301
2017/07/11/15:50:10.892955,138614,1499759410,892544031,0,626,221,116,106,192,83,87,279
2017/07/11/15:50:10.915507,138615,1499759410,915327072,0,634,232,124,105,187,84,104,312
2017/07/11/15:50:10.937605,138616,1499759410,937278032,0,569,193,114,101,165,76,100,314
2017/07/11/15:50:10.952887,138617,1499759410,952225923,0,563,192,118,106,167,78,100,279
2017/07/11/15:50:10.974930,138618,1499759410,974641084,0,586,195,116,98,176,77,105,291
2017/07/11/15:50:10.998523,138619,1499759410,998392105,0,567,195,121,122,208,82,109,313
2017/07/11/15:50:11.012080,138620,1499759411,11928081,0,556,148,100,112,215,76,94,288
2017/07/11/15:50:11.036987,138621,1499759411,36606073,0,540,135,98,112,219,75,91,290
2017/07/11/15:50:11.057114,138622,1499759411,56935071,0,527,130,91,108,222,75,86,281
2017/07/11/15:50:11.072871,138623,1499759411,72621107,0,564,152,92,108,241,72,86,286
