time,.header.seq,.header.stamp.secs,.header.stamp.nsecs,.header.frame_id,.ch0,.ch1,.ch2,.ch3,.ch4,.ch5,.ch6,.ch7
2017/07/11/16:00:33.341229,169662,1499760033,340980052,0,301,130,47,105,156,33,43,159
2017/07/11/16:00:33.364665,169663,1499760033,364566087,0,292,160,57,116,175,37,41,175
2017/07/11/16:00:33.379686,169664,1499760033,379538059,0,297,153,61,88,140,34,39,164
2017/07/11/16:00:33.401371,169665,1499760033,400954008,0,326,196,85,84,121,35,39,153
2017/07/11/16:00:33.430960,169666,1499760033,430674076,0,334,216,109,82,117,40,35,141
2017/07/11/16:00:33.440238,169667,1499760033,439755916,0,339,223,112,81,114,41,38,141
2017/07/11/16:00:33.468564,169668,1499760033,468272924,0,369,206,110,51,65,39,48,136
2017/07/11/16:00:33.484057,169669,1499760033,483074903,0,382,240,118,50,50,44,51,142
2017/07/11/16:00:33.500307,169670,1499760033,499773025,0,492,241,171,54,49,45,53,137
2017/07/11/16:00:33.523489,169671,1499760033,522461891,0,510,236,167,63,53,57,57,135
2017/07/11/16:00:33.547741,169672,1499760033,547164916,0,549,244,173,64,55,62,61,158
2017/07/11/16:00:33.560138,169673,1499760033,559979915,0,552,288,202,77,59,61,57,149
2017/07/11/16:00:33.588778,169674,1499760033,588526010,0,564,325,222,87,92,65,61,162
2017/07/11/16:00:33.605260,169675,1499760033,604962110,0,538,315,198,102,110,79,63,166
2017/07/11/16:00:33.620651,169676,1499760033,620187997,0,594,322,198,101,142,82,84,197
2017/07/11/16:00:33.642512,169677,1499760033,642266035,0,627,325,192,99,145,80,83,187
2017/07/11/16:00:33.664145,169678,1499760033,663841009,0,642,312,176,89,148,82,79,173
2017/07/11/16:00:33.679629,169679,1499760033,679512023,0,633,266,145,82,133,82,77,159
2017/07/11/16:00:33.701419,169680,1499760033,701143980,0,646,256,116,63,119,75,73,146
2017/07/11/16:00:33.723835,169681,1499760033,723553895,0,593,256,111,63,84,64,47,99
2017/07/11/16:00:33.739947,169682,1499760033,739651918,0,586,285,146,77,165,74,45,94
2017/07/11/16:00:33.768744,169683,1499760033,768595933,0,569,309,176,92,173,74,52,109
2017/07/11/16:00:33.783336,169684,1499760033,783145904,0,585,298,180,92,176,70,54,126
2017/07/11/16:00:33.807720,169685,1499760033,807548046,0,560,327,186,93,179,69,54,139
2017/07/11/16:00:33.823106,169686,1499760033,822786092,0,557,311,193,93,176,68,51,142
2017/07/11/16:00:33.843508,169687,1499760033,843307971,0,521,286,177,83,130,61,50,151
2017/07/11/16:00:33.860099,169688,1499760033,859957933,0,536,245,135,65,114,57,47,144
2017/07/11/16:00:33.880636,169689,1499760033,880548954,0,512,246,138,58,104,56,48,128
2017/07/11/16:00:33.908480,169690,1499760033,908229112,0,499,204,137,52,100,49,52,116
2017/07/11/16:00:33.920487,169691,1499760033,919894933,0,547,229,126,41,100,49,57,132
2017/07/11/16:00:33.940683,169692,1499760033,940568923,0,570,228,117,41,51,43,60,130
2017/07/11/16:00:33.963670,169693,1499760033,963486909,0,554,215,115,58,100,43,60,132
2017/07/11/16:00:33.980167,169694,1499760033,979973077,0,609,258,127,65,103,42,56,145
2017/07/11/16:00:34.000712,169695,1499760034,606060,0,622,269,121,68,102,42,56,153
2017/07/11/16:00:34.032679,169696,1499760034,32516002,0,550,260,122,71,106,43,54,143
2017/07/11/16:00:34.048299,169697,1499760034,48029899,0,481,266,142,72,111,43,53,159
2017/07/11/16:00:34.062323,169698,1499760034,62165975,0,476,351,157,69,100,47,53,155
2017/07/11/16:00:34.085199,169699,1499760034,85015058,0,403,313,135,64,99,52,56,149
2017/07/11/16:00:34.100038,169700,1499760034,99891901,0,345,353,138,65,97,50,55,144
2017/07/11/16:00:34.122613,169701,1499760034,122402906,0,368,398,154,72,93,47,54,145
2017/07/11/16:00:34.143978,169702,1499760034,143692016,0,512,404,139,85,117,56,52,141
2017/07/11/16:00:34.165781,169703,1499760034,165597915,0,503,335,118,78,102,55,49,137
2017/07/11/16:00:34.197734,169704,1499760034,197565078,0,517,358,119,76,100,52,45,136
2017/07/11/16:00:34.204608,169705,1499760034,204508066,0,580,351,127,79,101,62,46,160
2017/07/11/16:00:34.226044,169706,1499760034,225821971,0,582,304,121,79,104,62,41,154
2017/07/11/16:00:34.250176,169707,1499760034,249979972,0,527,290,124,75,86,61,41,138
2017/07/11/16:00:34.264558,169708,1499760034,264262914,0,542,342,140,80,78,68,46,163
2017/07/11/16:00:34.286479,169709,1499760034,286174058,0,646,375,159,86,84,71,51,193
2017/07/11/16:00:34.312184,169710,1499760034,311906099,0,629,346,170,89,93,71,51,184
2017/07/11/16:00:34.323699,169711,1499760034,323393106,0,669,345,162,93,98,73,54,191
2017/07/11/16:00:34.345927,169712,1499760034,345736980,0,714,363,160,99,152,86,59,212
2017/07/11/16:00:34.363081,169713,1499760034,362478971,0,701,326,154,114,162,97,62,208
2017/07/11/16:00:34.391002,169714,1499760034,390758037,0,655,343,175,117,171,95,64,180
2017/07/11/16:00:34.405894,169715,1499760034,405626058,0,634,332,157,122,205,97,68,180
2017/07/11/16:00:34.422114,169716,1499760034,421981096,0,712,321,149,123,211,107,76,226
2017/07/11/16:00:34.443286,169717,1499760034,443101882,0,686,294,152,115,171,99,71,205
2017/07/11/16:00:34.465798,169718,1499760034,465665102,0,737,319,160,102,179,95,93,254
2017/07/11/16:00:34.489061,169719,1499760034,488461971,0,716,236,126,106,199,104,98,281
2017/07/11/16:00:34.504006,169720,1499760034,503643035,0,713,264,136,98,162,101,102,342
2017/07/11/16:00:34.526108,169721,1499760034,525887012,0,611,271,137,90,196,90,97,315
2017/07/11/16:00:34.542027,169722,1499760034,541923046,0,658,267,138,97,278,87,101,331
2017/07/11/16:00:34.563704,169723,1499760034,563463926,0,620,267,143,94,275,77,82,309
2017/07/11/16:00:34.587914,169724,1499760034,587238073,0,709,296,158,111,269,65,85,314
2017/07/11/16:00:34.602317,169725,1499760034,602231025,0,748,268,146,118,275,70,77,243
2017/07/11/16:00:34.631108,169726,1499760034,630866050,0,743,262,150,125,282,74,75,248
2017/07/11/16:00:34.645882,169727,1499760034,645720958,0,691,291,147,120,225,94,104,282
2017/07/11/16:00:34.662765,169728,1499760034,662478923,0,711,246,122,118,257,96,126,313
2017/07/11/16:00:34.684875,169729,1499760034,684267997,0,705,251,99,102,266,97,122,315
2017/07/11/16:00:34.706583,169730,1499760034,706032037,0,668,256,99,99,276,100,127,336
2017/07/11/16:00:34.722477,169731,1499760034,722321987,0,726,271,106,85,286,114,135,359
2017/07/11/16:00:34.750975,169732,1499760034,750699043,0,685,262,117,91,284,113,121,333
2017/07/11/16:00:34.767346,169733,1499760034,767107963,0,695,265,118,96,397,158,108,309
2017/07/11/16:00:34.783147,169734,1499760034,782736063,0,681,260,115,94,412,165,112,321
2017/07/11/16:00:34.805054,169735,1499760034,804718017,0,739,412,144,95,413,168,119,322
2017/07/11/16:00:34.826569,169736,1499760034,826071977,0,727,422,141,101,388,158,118,314
2017/07/11/16:00:34.842564,169737,1499760034,842217922,0,783,423,132,103,399,150,121,327
2017/07/11/16:00:34.864949,169738,1499760034,864774942,0,748,425,133,103,310,102,112,317
2017/07/11/16:00:34.886445,169739,1499760034,886153936,0,715,403,135,98,275,95,106,305
2017/07/11/16:00:34.903077,169740,1499760034,902707099,0,736,262,105,107,298,84,103,303
2017/07/11/16:00:34.923501,169741,1499760034,923321008,0,742,241,99,115,303,86,103,326
2017/07/11/16:00:34.945774,169742,1499760034,945614099,0,703,277,110,116,281,89,91,357
2017/07/11/16:00:34.970556,169743,1499760034,970205068,0,776,287,114,114,222,88,87,366
2017/07/11/16:00:34.983754,169744,1499760034,983293056,0,773,296,106,117,235,91,89,368
2017/07/11/16:00:35.007903,169745,1499760035,7739067,0,743,284,108,109,194,92,89,396
2017/07/11/16:00:35.023327,169746,1499760035,22773981,0,771,309,123,104,185,93,88,389
2017/07/11/16:00:35.045130,169747,1499760035,44774055,0,758,305,140,106,186,86,92,435
2017/07/11/16:00:35.065679,169748,1499760035,65545082,0,771,347,167,116,194,87,105,475
2017/07/11/16:00:35.088761,169749,1499760035,88511943,0,772,342,170,112,187,123,105,507
2017/07/11/16:00:35.103907,169750,1499760035,103398084,0,810,387,185,115,189,125,115,530
2017/07/11/16:00:35.125709,169751,1499760035,125557899,0,754,375,187,123,211,126,116,565
2017/07/11/16:00:35.149006,169752,1499760035,148492097,0,809,372,173,120,211,131,117,512
2017/07/11/16:00:35.163584,169753,1499760035,163347005,0,797,322,146,124,214,140,114,507
2017/07/11/16:00:35.185883,169754,1499760035,185625076,0,895,351,148,137,219,105,142,574
2017/07/11/16:00:35.209116,169755,1499760035,208597898,0,866,299,125,133,230,106,128,548
2017/07/11/16:00:35.223470,169756,1499760035,223314046,0,912,294,108,122,206,105,124,507
2017/07/11/16:00:35.246692,169757,1499760035,246206045,0,952,425,127,133,216,101,119,503
2017/07/11/16:00:35.268087,169758,1499760035,267982959,0,1004,481,166,129,218,94,140,551
2017/07/11/16:00:35.283293,169759,1499760035,283155918,0,986,487,177,130,204,107,145,506
2017/07/11/16:00:35.306288,169760,1499760035,305983066,0,1005,500,186,133,192,102,149,564
2017/07/11/16:00:35.328480,169761,1499760035,328219890,0,988,511,188,142,221,102,152,605
2017/07/11/16:00:35.345743,169762,1499760035,345307111,0,966,435,204,133,197,106,151,609
2017/07/11/16:00:35.366283,169763,1499760035,365926027,0,889,387,183,123,176,110,140,580
2017/07/11/16:00:35.388173,169764,1499760035,388062953,0,890,394,189,122,185,98,137,545
2017/07/11/16:00:35.405439,169765,1499760035,405289888,0,940,390,184,117,233,100,135,478
2017/07/11/16:00:35.426483,169766,1499760035,425892114,0,906,380,186,112,221,100,134,446
2017/07/11/16:00:35.448709,169767,1499760035,448426008,0,935,473,179,117,249,108,148,465
2017/07/11/16:00:35.472590,169768,1499760035,472280979,0,966,525,201,126,264,105,148,480
2017/07/11/16:00:35.485792,169769,1499760035,485594034,0,885,503,191,128,270,104,126,538
2017/07/11/16:00:35.508959,169770,1499760035,508541107,0,745,489,187,127,220,96,122,523
2017/07/11/16:00:35.532287,169771,1499760035,532105922,0,768,487,190,153,238,106,124,514
2017/07/11/16:00:35.546345,169772,1499760035,546000003,0,777,425,190,153,217,102,131,496
2017/07/11/16:00:35.568586,169773,1499760035,568455934,0,824,372,157,145,196,95,138,503
2017/07/11/16:00:35.584651,169774,1499760035,584518909,0,800,370,160,158,180,96,133,426
2017/07/11/16:00:35.606051,169775,1499760035,605685949,0,808,370,161,159,182,106,142,447
2017/07/11/16:00:35.638261,169776,1499760035,636240959,0,919,399,183,131,133,101,156,486
2017/07/11/16:00:35.644639,169777,1499760035,644556045,0,898,331,218,131,136,98,146,577
2017/07/11/16:00:35.666092,169778,1499760035,665781974,0,764,326,227,140,152,98,130,630
2017/07/11/16:00:35.688853,169779,1499760035,688657999,0,781,315,220,118,168,98,132,628
2017/07/11/16:00:35.705212,169780,1499760035,705116033,0,779,320,225,128,178,98,125,623
2017/07/11/16:00:35.725883,169781,1499760035,725653886,0,674,319,225,134,187,91,110,600
2017/07/11/16:00:35.750267,169782,1499760035,749900102,0,657,346,191,132,177,80,111,545
2017/07/11/16:00:35.765794,169783,1499760035,765593051,0,660,325,179,126,174,77,105,422
2017/07/11/16:00:35.785910,169784,1499760035,785751104,0,685,339,191,143,189,79,105,413
2017/07/11/16:00:35.808486,169785,1499760035,808325052,0,767,353,190,137,177,74,112,415
2017/07/11/16:00:35.825295,169786,1499760035,824866056,0,746,347,174,135,169,70,110,400
2017/07/11/16:00:35.861730,169787,1499760035,861524105,0,688,312,144,125,169,68,92,345
2017/07/11/16:00:35.868679,169788,1499760035,868428945,0,681,304,141,120,165,71,91,315
2017/07/11/16:00:35.885192,169789,1499760035,884635925,0,644,300,123,89,117,80,87,343
2017/07/11/16:00:35.908689,169790,1499760035,908467054,0,587,303,127,81,110,80,84,364
2017/07/11/16:00:35.929054,169791,1499760035,928632020,0,550,285,108,68,112,81,87,370
2017/07/11/16:00:35.945140,169792,1499760035,944933891,0,495,255,102,74,141,81,85,376
2017/07/11/16:00:35.966475,169793,1499760035,966048002,0,530,259,108,76,137,79,89,389
2017/07/11/16:00:35.988425,169794,1499760035,988151073,0,533,323,134,76,153,72,90,358
2017/07/11/16:00:36.005227,169795,1499760036,5069017,0,552,342,140,97,165,72,85,330
2017/07/11/16:00:36.027615,169796,1499760036,27534961,0,535,334,145,103,164,77,82,328
2017/07/11/16:00:36.048693,169797,1499760036,48371076,0,552,337,149,105,140,85,83,308
2017/07/11/16:00:36.071790,169798,1499760036,71202039,0,646,358,158,104,139,85,81,321
2017/07/11/16:00:36.087826,169799,1499760036,87614059,0,705,309,147,103,129,78,87,376
2017/07/11/16:00:36.108549,169800,1499760036,108350038,0,681,276,150,86,118,70,83,416
2017/07/11/16:00:36.132324,169801,1499760036,132177114,0,667,260,137,93,132,62,79,406
2017/07/11/16:00:36.146477,169802,1499760036,146051883,0,665,265,135,91,133,50,84,418
2017/07/11/16:00:36.168618,169803,1499760036,168312072,0,596,246,124,111,157,53,78,403
2017/07/11/16:00:36.193186,169804,1499760036,192958116,0,526,237,113,109,144,52,68,339
2017/07/11/16:00:36.208562,169805,1499760036,208338975,0,471,214,84,106,139,59,68,276
2017/07/11/16:00:36.228143,169806,1499760036,228040933,0,516,213,88,95,124,73,67,246
2017/07/11/16:00:36.253096,169807,1499760036,252759933,0,540,227,84,96,124,73,61,213
2017/07/11/16:00:36.266147,169808,1499760036,265795946,0,520,238,98,70,80,73,60,184
2017/07/11/16:00:36.288537,169809,1499760036,288403034,0,538,222,94,76,87,72,64,180
2017/07/11/16:00:36.311194,169810,1499760036,310977935,0,525,223,95,92,117,68,60,178
2017/07/11/16:00:36.326556,169811,1499760036,326075077,0,535,214,92,100,127,58,59,181
2017/07/11/16:00:36.348591,169812,1499760036,348437070,0,552,218,100,100,141,68,70,255
