time,.header.seq,.header.stamp.secs,.header.stamp.nsecs,.header.frame_id,.quat0,.quat1,.quat2,.quat3,.acc0,.acc1,.acc2
2017/07/11/16:02:16.040617,173550,1499760136,39935111,0,2625,3588,9728,12410,235,1880,361
2017/07/11/16:02:16.060943,173551,1499760136,60826063,0,2616,3577,9758,12391,229,1908,315
2017/07/11/16:02:16.084387,173552,1499760136,83930015,0,2608,3572,9787,12372,261,1996,337
2017/07/11/16:02:16.098887,173553,1499760136,98629951,0,2592,3573,9798,12366,262,2031,308
2017/07/11/16:02:16.121501,173554,1499760136,121095895,0,2580,3574,9785,12379,309,2011,383
2017/07/11/16:02:16.143928,173555,1499760136,143702030,0,2580,3565,9767,12396,276,1867,363
2017/07/11/16:02:16.159012,173556,1499760136,158663988,0,2573,3554,9755,12409,240,1818,382
2017/07/11/16:02:16.181335,173557,1499760136,181128025,0,2567,3551,9748,12417,269,1900,396
2017/07/11/16:02:16.203652,173558,1499760136,203386068,0,2565,3549,9742,12422,338,1947,381
2017/07/11/16:02:16.219006,173559,1499760136,218744993,0,2560,3538,9738,12430,285,1911,405
2017/07/11/16:02:16.241684,173560,1499760136,241192102,0,2555,3530,9732,12438,233,1864,412
2017/07/11/16:02:16.264580,173561,1499760136,264133930,0,2545,3529,9730,12442,287,1901,392
2017/07/11/16:02:16.278610,173562,1499760136,278450965,0,2537,3521,9731,12445,278,1880,414
2017/07/11/16:02:16.301250,173563,1499760136,300976991,0,2529,3506,9739,12445,250,1904,368
2017/07/11/16:02:16.331916,173564,1499760136,331707000,0,2520,3495,9746,12444,233,1949,335
2017/07/11/16:02:16.338810,173565,1499760136,338547945,0,2522,3489,9738,12452,256,2037,371
2017/07/11/16:02:16.361671,173566,1499760136,361309051,0,2527,3491,9723,12462,338,1937,387
2017/07/11/16:02:16.383751,173567,1499760136,383577108,0,2526,3485,9708,12475,302,1841,430
2017/07/11/16:02:16.398608,173568,1499760136,398367881,0,2520,3478,9696,12488,277,1877,398
2017/07/11/16:02:16.421288,173569,1499760136,421091079,0,2519,3468,9687,12498,274,1881,405
2017/07/11/16:02:16.444061,173570,1499760136,443768024,0,2526,3454,9696,12493,266,1985,333
2017/07/11/16:02:16.458837,173571,1499760136,458604097,0,2541,3445,9691,12497,267,2027,398
2017/07/11/16:02:16.481601,173572,1499760136,481348991,0,2543,3445,9667,12515,358,1896,433
2017/07/11/16:02:16.503971,173573,1499760136,503608942,0,2541,3439,9645,12534,384,1772,430
2017/07/11/16:02:16.518501,173574,1499760136,518352985,0,2553,3416,9646,12537,248,1830,442
2017/07/11/16:02:16.541302,173575,1499760136,541009902,0,2577,3388,9662,12527,277,1948,398
2017/07/11/16:02:16.564123,173576,1499760136,563774108,0,2611,3349,9661,12531,287,2033,406
2017/07/11/16:02:16.578722,173577,1499760136,578527927,0,2637,3308,9656,12541,302,1924,419
2017/07/11/16:02:16.608618,173578,1499760136,608409881,0,2653,3255,9660,12548,257,1822,481
2017/07/11/16:02:16.623992,173579,1499760136,623676061,0,2678,3194,9680,12543,198,1894,467
2017/07/11/16:02:16.646311,173580,1499760136,645979881,0,2707,3124,9683,12552,232,1962,490
2017/07/11/16:02:16.661308,173581,1499760136,661083936,0,2729,3042,9673,12576,233,1871,515
2017/07/11/16:02:16.684092,173582,1499760136,683886051,0,2749,2957,9684,12583,123,1891,498
2017/07/11/16:02:16.706615,173583,1499760136,706125974,0,2762,2868,9716,12576,120,1955,474
2017/07/11/16:02:16.721557,173584,1499760136,721177101,0,2780,2775,9728,12584,99,1994,471
2017/07/11/16:02:16.743885,173585,1499760136,743681907,0,2792,2679,9735,12596,115,1975,490
2017/07/11/16:02:16.766780,173586,1499760136,766333103,0,2803,2582,9747,12605,62,1976,507
2017/07/11/16:02:16.789316,173587,1499760136,788988113,0,2817,2483,9764,12608,2,2044,447
2017/07/11/16:02:16.803761,173588,1499760136,803560972,0,2832,2382,9762,12626,27,2033,483
2017/07/11/16:02:16.826345,173589,1499760136,826158046,0,2855,2276,9748,12651,21,2050,523
2017/07/11/16:02:16.843507,173590,1499760136,843292951,0,2866,2188,9720,12686,82,2126,498
2017/07/11/16:02:16.863563,173591,1499760136,863387107,0,2913,2054,9726,12693,-194,2030,492
2017/07/11/16:02:16.887046,173592,1499760136,886694908,0,2957,1934,9736,12694,-40,1974,565
2017/07/11/16:02:16.901689,173593,1499760136,901336908,0,3010,1800,9767,12677,-126,2031,542
2017/07/11/16:02:16.924009,173594,1499760136,923737049,0,3064,1663,9792,12664,-199,2055,570
2017/07/11/16:02:16.946253,173595,1499760136,945977926,0,3116,1520,9817,12650,-289,1983,548
2017/07/11/16:02:16.961715,173596,1499760136,961319923,0,3184,1377,9832,12637,-303,1977,564
2017/07/11/16:02:16.984200,173597,1499760136,983865022,0,3255,1237,9848,12622,-285,1903,564
2017/07/11/16:02:17.006325,173598,1499760137,6057024,0,3321,1093,9867,12602,-380,1916,588
2017/07/11/16:02:17.023108,173599,1499760137,22855997,0,3384,957,9889,12579,-426,1956,558
2017/07/11/16:02:17.045855,173600,1499760137,45309066,0,3452,818,9891,12570,-482,1946,580
2017/07/11/16:02:17.068149,173601,1499760137,68007946,0,3536,673,9891,12555,-540,1801,575
2017/07/11/16:02:17.081360,173602,1499760137,81202983,0,3629,532,9895,12532,-488,1803,582
2017/07/11/16:02:17.103702,173603,1499760137,103466033,0,3719,389,9901,12506,-505,1844,586
2017/07/11/16:02:17.127003,173604,1499760137,126499891,0,3806,246,9909,12477,-636,1901,529
2017/07/11/16:02:17.142860,173605,1499760137,142671108,0,3901,98,9907,12452,-734,1920,575
2017/07/11/16:02:17.165075,173606,1499760137,164807081,0,4003,-41,9893,12430,-711,1833,560
2017/07/11/16:02:17.186764,173607,1499760137,186327934,0,4098,-169,9889,12401,-725,1754,613
2017/07/11/16:02:17.208606,173608,1499760137,208410978,0,4182,-289,9902,12361,-754,1783,538
2017/07/11/16:02:17.223692,173609,1499760137,223506927,0,4271,-403,9911,12320,-879,1866,501
2017/07/11/16:02:17.254299,173610,1499760137,254174947,0,4374,-508,9901,12288,-874,1789,559
2017/07/11/16:02:17.261185,173611,1499760137,260999917,0,4472,-601,9883,12263,-810,1686,613
2017/07/11/16:02:17.283957,173612,1499760137,283756971,0,4567,-686,9871,12233,-835,1714,564
2017/07/11/16:02:17.307651,173613,1499760137,307435035,0,4667,-773,9859,12200,-941,1809,531
2017/07/11/16:02:17.328617,173614,1499760137,328464031,0,4765,-854,9835,12176,-937,1769,522
2017/07/11/16:02:17.343935,173615,1499760137,343601942,0,4855,-924,9785,12175,-849,1644,593
2017/07/11/16:02:17.366229,173616,1499760137,366015911,0,4943,-994,9734,12175,-853,1606,578
2017/07/11/16:02:17.391323,173617,1499760137,390698909,0,5037,-1064,9692,12164,-994,1691,516
2017/07/11/16:02:17.407160,173618,1499760137,406936883,0,5149,-1121,9634,12158,-1048,1659,546
2017/07/11/16:02:17.427401,173619,1499760137,426363945,0,5258,-1165,9568,12159,-922,1522,664
2017/07/11/16:02:17.448979,173620,1499760137,448637962,0,5354,-1195,9521,12152,-912,1534,633
2017/07/11/16:02:17.463755,173621,1499760137,463624954,0,5454,-1216,9484,12134,-1025,1686,557
2017/07/11/16:02:17.485849,173622,1499760137,485753059,0,5557,-1218,9414,12141,-1044,1677,585
2017/07/11/16:02:17.511771,173623,1499760137,511575937,0,5648,-1217,9328,12166,-874,1477,647
2017/07/11/16:02:17.523757,173624,1499760137,523478984,0,5724,-1210,9260,12183,-869,1398,704
2017/07/11/16:02:17.545945,173625,1499760137,545795917,0,5802,-1203,9188,12202,-985,1590,652
2017/07/11/16:02:17.568990,173626,1499760137,568850994,0,5882,-1189,9099,12231,-1031,1536,688
2017/07/11/16:02:17.583812,173627,1499760137,583635091,0,5969,-1168,9017,12252,-970,1390,671
2017/07/11/16:02:17.606332,173628,1499760137,606075048,0,6051,-1127,8950,12265,-884,1365,748
2017/07/11/16:02:17.629281,173629,1499760137,628850936,0,6115,-1061,8909,12269,-890,1513,754
2017/07/11/16:02:17.643802,173630,1499760137,643507003,0,6166,-994,8861,12283,-927,1619,707
2017/07/11/16:02:17.666595,173631,1499760137,666343927,0,6210,-936,8783,12322,-902,1510,750
2017/07/11/16:02:17.695150,173632,1499760137,694952011,0,6269,-878,8698,12356,-938,1270,855
2017/07/11/16:02:17.703681,173633,1499760137,703536987,0,6331,-791,8670,12351,-906,1265,838
2017/07/11/16:02:17.726521,173634,1499760137,726284980,0,6363,-688,8675,12337,-862,1632,833
2017/07/11/16:02:17.748776,173635,1499760137,748636960,0,6377,-594,8645,12355,-872,1600,763
2017/07/11/16:02:17.763987,173636,1499760137,763715982,0,6397,-505,8587,12389,-878,1312,836
2017/07/11/16:02:17.786577,173637,1499760137,786214113,0,6415,-412,8544,12413,-684,1375,983
2017/07/11/16:02:17.808407,173638,1499760137,808295965,0,6421,-330,8509,12436,-735,1462,901
2017/07/11/16:02:17.824020,173639,1499760137,823673963,0,6440,-258,8464,12459,-881,1435,842
2017/07/11/16:02:17.846047,173640,1499760137,845901012,0,6463,-169,8426,12474,-739,1346,852
2017/07/11/16:02:17.868594,173641,1499760137,868460893,0,6467,-76,8399,12491,-642,1533,935
2017/07/11/16:02:17.884088,173642,1499760137,883680105,0,6464,-6,8370,12513,-792,1595,934
2017/07/11/16:02:17.906294,173643,1499760137,906120061,0,6468,52,8328,12538,-818,1557,843
2017/07/11/16:02:17.928535,173644,1499760137,928374052,0,6474,112,8266,12576,-654,1507,890
2017/07/11/16:02:17.947584,173645,1499760137,947427988,0,6476,179,8203,12615,-708,1469,996
2017/07/11/16:02:17.966344,173646,1499760137,966057062,0,6483,244,8174,12629,-752,1478,1081
2017/07/11/16:02:17.998468,173647,1499760137,997801065,0,6485,310,8183,12621,-694,1689,910
2017/07/11/16:02:18.003587,173648,1499760138,3329992,0,6487,359,8140,12646,-628,1724,953
2017/07/11/16:02:18.026506,173649,1499760138,26125907,0,6498,396,8068,12686,-686,1465,1087
2017/07/11/16:02:18.049210,173650,1499760138,48948049,0,6515,441,8059,12682,-781,1513,1062
2017/07/11/16:02:18.063987,173651,1499760138,63718080,0,6521,494,8063,12674,-656,1810,953
2017/07/11/16:02:18.086177,173652,1499760138,86007118,0,6532,522,8000,12707,-707,1681,1011
2017/07/11/16:02:18.109075,173653,1499760138,108787059,0,6555,552,7934,12735,-750,1403,1062
2017/07/11/16:02:18.123869,173654,1499760138,123661994,0,6574,605,7906,12740,-633,1423,1065
2017/07/11/16:02:18.146570,173655,1499760138,146404981,0,6586,658,7893,12740,-578,1615,1123
2017/07/11/16:02:18.169385,173656,1499760138,168951988,0,6609,692,7860,12747,-752,1614,1082
2017/07/11/16:02:18.184263,173657,1499760138,183928966,0,6633,732,7802,12767,-644,1567,1075
2017/07/11/16:02:18.205989,173658,1499760138,205881118,0,6653,776,7737,12794,-549,1479,1061
2017/07/11/16:02:18.228519,173659,1499760138,228374958,0,6672,816,7684,12813,-574,1379,1150
2017/07/11/16:02:18.243488,173660,1499760138,243347883,0,6693,870,7662,12812,-648,1521,1157
2017/07/11/16:02:18.278330,173661,1499760138,277693986,0,6708,932,7647,12809,-552,1709,1067
2017/07/11/16:02:18.289040,173662,1499760138,288728952,0,6721,985,7593,12830,-518,1632,1015
2017/07/11/16:02:18.304032,173663,1499760138,303755998,0,6734,1028,7517,12865,-494,1418,1157
2017/07/11/16:02:18.326532,173664,1499760138,326304912,0,6747,1067,7464,12886,-514,1388,1210
2017/07/11/16:02:18.348707,173665,1499760138,348428010,0,6766,1116,7439,12886,-611,1477,1181
2017/07/11/16:02:18.371625,173666,1499760138,371304988,0,6784,1181,7421,12881,-495,1663,1072
2017/07/11/16:02:18.386394,173667,1499760138,386092901,0,6795,1230,7369,12900,-401,1621,1093
2017/07/11/16:02:18.409245,173668,1499760138,408788919,0,6813,1268,7308,12922,-490,1342,1189
2017/07/11/16:02:18.435323,173669,1499760138,434900999,0,6831,1321,7286,12920,-507,1424,1217
2017/07/11/16:02:18.446504,173670,1499760138,446238994,0,6843,1382,7277,12912,-446,1626,1106
2017/07/11/16:02:18.468400,173671,1499760138,468297958,0,6855,1431,7241,12920,-401,1576,1095
2017/07/11/16:02:18.491369,173672,1499760138,491102933,0,6872,1476,7191,12934,-415,1415,1190
2017/07/11/16:02:18.506161,173673,1499760138,505995035,0,6884,1523,7167,12936,-417,1484,1184
2017/07/11/16:02:18.528792,173674,1499760138,528584003,0,6893,1563,7141,12940,-389,1529,1145
2017/07/11/16:02:18.551156,173675,1499760138,550954103,0,6907,1594,7106,12949,-394,1538,1171
2017/07/11/16:02:18.566092,173676,1499760138,565850019,0,6922,1629,7071,12955,-386,1523,1269
2017/07/11/16:02:18.588769,173677,1499760138,588557004,0,6929,1663,7051,12958,-377,1560,1256
2017/07/11/16:02:18.611259,173678,1499760138,611064910,0,6936,1687,7021,12968,-370,1556,1214
2017/07/11/16:02:18.626606,173679,1499760138,626187086,0,6949,1708,6985,12977,-366,1444,1223
2017/07/11/16:02:18.648818,173680,1499760138,648670911,0,6962,1743,6978,12970,-425,1458,1213
2017/07/11/16:02:18.671096,173681,1499760138,670893907,0,6966,1788,6983,12958,-361,1631,1211
2017/07/11/16:02:18.686234,173682,1499760138,686033010,0,6968,1815,6967,12962,-299,1620,1218
2017/07/11/16:02:18.708985,173683,1499760138,708722114,0,6979,1826,6940,12970,-355,1415,1226
2017/07/11/16:02:18.731063,173684,1499760138,730953931,0,6990,1856,6932,12964,-380,1444,1258
2017/07/11/16:02:18.746638,173685,1499760138,746391057,0,6992,1891,6942,12952,-294,1622,1179
2017/07/11/16:02:18.768842,173686,1499760138,768582105,0,6991,1896,6928,12959,-280,1564,1164
2017/07/11/16:02:18.791661,173687,1499760138,791335105,0,7000,1889,6902,12969,-358,1355,1236
2017/07/11/16:02:18.806320,173688,1499760138,805995941,0,7008,1907,6913,12957,-376,1460,1224
2017/07/11/16:02:18.829043,173689,1499760138,828778028,0,7007,1933,6933,12942,-307,1682,1159
2017/07/11/16:02:18.852036,173690,1499760138,851478099,0,7008,1931,6916,12952,-299,1564,1199
2017/07/11/16:02:18.866165,173691,1499760138,865957021,0,7016,1921,6893,12961,-362,1374,1265
2017/07/11/16:02:18.889050,173692,1499760138,888848066,0,7023,1935,6904,12949,-372,1462,1230
2017/07/11/16:02:18.911749,173693,1499760138,911294937,0,7024,1960,6923,12935,-334,1649,1196
2017/07/11/16:02:18.928531,173694,1499760138,928322076,0,7023,1964,6910,12941,-273,1549,1202
2017/07/11/16:02:18.949139,173695,1499760138,948878049,0,7029,1956,6892,12949,-328,1345,1280
2017/07/11/16:02:18.972088,173696,1499760138,971568107,0,7032,1967,6914,12934,-369,1427,1260
2017/07/11/16:02:18.986072,173697,1499760138,985949039,0,7031,1986,6945,12915,-335,1685,1201
2017/07/11/16:02:19.008915,173698,1499760139,8721113,0,7031,1984,6942,12917,-316,1610,1162
2017/07/11/16:02:19.039829,173699,1499760139,39505958,0,7036,1972,6919,12928,-322,1415,1226
2017/07/11/16:02:19.046698,173700,1499760139,46479940,0,7040,1972,6920,12926,-328,1396,1257
2017/07/11/16:02:19.068747,173701,1499760139,68551063,0,7042,1980,6942,12911,-363,1537,1213
2017/07/11/16:02:19.091369,173702,1499760139,91052055,0,7044,1985,6953,12904,-345,1573,1163
2017/07/11/16:02:19.107772,173703,1499760139,107281923,0,7046,1982,6948,12906,-331,1504,1182
2017/07/11/16:02:19.128866,173704,1499760139,128499984,0,7044,1982,6942,12910,-322,1443,1203
2017/07/11/16:02:19.151354,173705,1499760139,151077032,0,7040,1984,6949,12908,-338,1481,1203
2017/07/11/16:02:19.166628,173706,1499760139,166387081,0,7037,1982,6957,12906,-331,1548,1182
2017/07/11/16:02:19.188513,173707,1499760139,188345909,0,7037,1981,6958,12906,-359,1509,1182
2017/07/11/16:02:19.211123,173708,1499760139,210915088,0,7037,1982,6958,12906,-319,1484,1154
2017/07/11/16:02:19.226367,173709,1499760139,226175069,0,7033,1983,6961,12906,-297,1537,1129
2017/07/11/16:02:19.248794,173710,1499760139,248590946,0,7029,1975,6950,12915,-309,1478,1216
2017/07/11/16:02:19.271452,173711,1499760139,271209001,0,7030,1968,6952,12914,-360,1452,1223
2017/07/11/16:02:19.288868,173712,1499760139,288458108,0,7029,1976,6968,12905,-382,1561,1190
2017/07/11/16:02:19.309808,173713,1499760139,309675931,0,7027,1986,6970,12904,-313,1574,1135
2017/07/11/16:02:19.331373,173714,1499760139,331079959,0,7022,1992,6960,12911,-277,1504,1145
2017/07/11/16:02:19.346321,173715,1499760139,345897912,0,7016,1990,6954,12917,-316,1460,1215
2017/07/11/16:02:19.369256,173716,1499760139,368787050,0,7011,1993,6963,12915,-371,1461,1234
2017/07/11/16:02:19.391038,173717,1499760139,390918970,0,7008,2004,6980,12906,-325,1614,1181
