time,.header.seq,.header.stamp.secs,.header.stamp.nsecs,.header.frame_id,.quat0,.quat1,.quat2,.quat3,.acc0,.acc1,.acc2
2017/07/11/15:49:16.443843,134639,1499759356,443708896,0,3483,3809,8933,12727,218,1815,586
2017/07/11/15:49:16.465079,134640,1499759356,464672088,0,3461,3815,8963,12710,226,1943,530
2017/07/11/15:49:16.480363,134641,1499759356,480192899,0,3449,3825,8988,12692,270,1891,543
2017/07/11/15:49:16.503090,134642,1499759356,502926111,0,3434,3831,9006,12682,274,1841,553
2017/07/11/15:49:16.525563,134643,1499759356,525172948,0,3414,3828,9019,12679,251,1849,526
2017/07/11/15:49:16.539698,134644,1499759356,539458036,0,3401,3837,9035,12668,239,1984,430
2017/07/11/15:49:16.562468,134645,1499759356,562172889,0,3397,3837,9027,12675,336,1898,605
2017/07/11/15:49:16.585245,134646,1499759356,584825038,0,3394,3839,9020,12680,234,1791,550
2017/07/11/15:49:16.599658,134647,1499759356,599298000,0,3389,3838,9021,12681,236,1848,555
2017/07/11/15:49:16.621973,134648,1499759356,621803998,0,3382,3837,9022,12683,256,1881,539
2017/07/11/15:49:16.644646,134649,1499759356,644475936,0,3372,3834,9015,12691,308,1905,588
2017/07/11/15:49:16.660305,134650,1499759356,659921884,0,3365,3830,9008,12699,264,1801,576
2017/07/11/15:49:16.682172,134651,1499759356,682003974,0,3354,3822,9011,12702,265,1798,547
2017/07/11/15:49:16.705346,134652,1499759356,705017089,0,3336,3813,9015,12707,243,1880,529
2017/07/11/15:49:16.720037,134653,1499759356,719811916,0,3327,3809,9019,12708,266,1950,545
2017/07/11/15:49:16.744992,134654,1499759356,744880914,0,3326,3818,9022,12703,241,1895,519
2017/07/11/15:49:16.764796,134655,1499759356,764620065,0,3322,3825,9026,12699,308,1866,534
2017/07/11/15:49:16.779862,134656,1499759356,779591083,0,3308,3824,9022,12706,292,1890,497
2017/07/11/15:49:16.802745,134657,1499759356,802321910,0,3291,3820,9016,12716,293,2009,554
2017/07/11/15:49:16.833249,134658,1499759356,832793951,0,3275,3840,9018,12713,274,1895,558
2017/07/11/15:49:16.839958,134659,1499759356,839679956,0,3266,3872,9026,12699,292,1809,528
2017/07/11/15:49:16.862065,134660,1499759356,861908912,0,3251,3878,9033,12696,317,1875,551
2017/07/11/15:49:16.887290,134661,1499759356,886918067,0,3231,3880,9055,12685,258,1906,522
2017/07/11/15:49:16.900202,134662,1499759356,900031089,0,3238,3902,9073,12664,276,1963,583
2017/07/11/15:49:16.922740,134663,1499759356,922418117,0,3255,3925,9079,12648,433,1839,578
2017/07/11/15:49:16.945405,134664,1499759356,945071935,0,3271,3919,9066,12656,431,1657,616
2017/07/11/15:49:16.959776,134665,1499759356,959614992,0,3278,3898,9091,12642,252,1709,551
2017/07/11/15:49:16.986348,134666,1499759356,982112884,0,3315,3862,9141,12607,175,2005,497
2017/07/11/15:49:17.005030,134667,1499759357,4828929,0,3375,3834,9166,12582,277,2145,431
2017/07/11/15:49:17.027216,134668,1499759357,27029037,0,3408,3812,9152,12590,392,1920,503
2017/07/11/15:49:17.042690,134669,1499759357,42273044,0,3430,3771,9132,12611,296,1797,610
2017/07/11/15:49:17.064611,134670,1499759357,64501047,0,3461,3725,9146,12606,172,1968,469
2017/07/11/15:49:17.087430,134671,1499759357,87187051,0,3525,3666,9158,12597,115,2103,485
2017/07/11/15:49:17.110644,134672,1499759357,110466957,0,3590,3608,9147,12603,181,2074,587
2017/07/11/15:49:17.125041,134673,1499759357,124778032,0,3645,3540,9138,12613,129,2000,637
2017/07/11/15:49:17.146972,134674,1499759357,146831035,0,3693,3468,9148,12612,95,2034,514
2017/07/11/15:49:17.169652,134675,1499759357,169471979,0,3828,3364,9208,12556,-178,2128,459
2017/07/11/15:49:17.184771,134676,1499759357,184586048,0,3923,3292,9213,12542,85,2084,689
2017/07/11/15:49:17.207150,134677,1499759357,206971883,0,4028,3197,9240,12513,-137,2147,604
2017/07/11/15:49:17.222370,134678,1499759357,222182035,0,4120,3097,9253,12499,-130,2078,610
2017/07/11/15:49:17.244790,134679,1499759357,244611024,0,4230,2982,9255,12489,-208,1926,627
2017/07/11/15:49:17.267599,134680,1499759357,267270088,0,4353,2866,9289,12448,-237,1873,593
2017/07/11/15:49:17.282749,134681,1499759357,282334089,0,4485,2762,9346,12382,-302,1961,586
2017/07/11/15:49:17.313658,134682,1499759357,312618970,0,4610,2674,9389,12323,-235,1975,606
2017/07/11/15:49:17.327420,134683,1499759357,327182054,0,4734,2571,9401,12289,-285,1969,626
2017/07/11/15:49:17.342724,134684,1499759357,342407941,0,4865,2463,9401,12260,-348,1875,602
2017/07/11/15:49:17.364823,134685,1499759357,364686965,0,4997,2360,9405,12224,-288,1819,653
2017/07/11/15:49:17.387364,134686,1499759357,387134075,0,5115,2268,9420,12180,-329,1825,612
2017/07/11/15:49:17.402641,134687,1499759357,402318000,0,5232,2171,9429,12142,-390,1857,582
2017/07/11/15:49:17.425221,134688,1499759357,424933910,0,5355,2077,9431,12103,-446,1857,531
2017/07/11/15:49:17.446998,134689,1499759357,446849107,0,5485,1989,9410,12075,-366,1796,655
2017/07/11/15:49:17.462423,134690,1499759357,462225914,0,5604,1913,9386,12052,-313,1755,665
2017/07/11/15:49:17.484919,134691,1499759357,484683036,0,5709,1830,9372,12027,-413,1756,611
2017/07/11/15:49:17.507114,134692,1499759357,506957054,0,5821,1746,9360,11994,-576,1829,564
2017/07/11/15:49:17.522987,134693,1499759357,522361993,0,5941,1671,9331,11969,-546,1879,627
2017/07/11/15:49:17.552754,134694,1499759357,552547931,0,6052,1606,9278,11963,-427,1786,690
2017/07/11/15:49:17.568163,134695,1499759357,567475080,0,6156,1531,9222,11963,-503,1680,732
2017/07/11/15:49:17.582458,134696,1499759357,582170009,0,6267,1465,9187,11941,-589,1694,675
2017/07/11/15:49:17.604819,134697,1499759357,604675054,0,6382,1412,9146,11917,-602,1828,653
2017/07/11/15:49:17.628546,134698,1499759357,627990961,0,6484,1369,9099,11903,-557,1808,648
2017/07/11/15:49:17.642521,134699,1499759357,642189025,0,6581,1312,9022,11916,-530,1787,700
2017/07/11/15:49:17.664862,134700,1499759357,664681911,0,6673,1258,8943,11929,-605,1645,730
2017/07/11/15:49:17.688756,134701,1499759357,688369035,0,6782,1211,8876,11923,-696,1661,779
2017/07/11/15:49:17.702030,134702,1499759357,701855897,0,6891,1176,8822,11904,-657,1760,774
2017/07/11/15:49:17.724873,134703,1499759357,724670886,0,6975,1135,8754,11910,-600,1760,853
2017/07/11/15:49:17.747566,134704,1499759357,747421979,0,7054,1089,8669,11929,-728,1663,845
2017/07/11/15:49:17.762919,134705,1499759357,762576103,0,7161,1045,8578,11935,-818,1657,804
2017/07/11/15:49:17.784782,134706,1499759357,784568071,0,7267,1019,8492,11934,-679,1626,882
2017/07/11/15:49:17.807725,134707,1499759357,807326078,0,7343,1004,8413,11945,-555,1573,953
2017/07/11/15:49:17.822526,134708,1499759357,822310924,0,7419,969,8333,11958,-722,1645,869
2017/07/11/15:49:17.845462,134709,1499759357,844314098,0,7520,932,8234,11966,-868,1623,834
2017/07/11/15:49:17.867290,134710,1499759357,867099046,0,7630,918,8125,11972,-738,1530,955
2017/07/11/15:49:17.887296,134711,1499759357,886845111,0,7710,916,8035,11982,-570,1367,1029
2017/07/11/15:49:17.904550,134712,1499759357,904411077,0,7780,906,7963,11986,-684,1549,940
2017/07/11/15:49:17.927411,134713,1499759357,927119016,0,7867,878,7855,12002,-804,1624,955
2017/07/11/15:49:17.944675,134714,1499759357,944447040,0,7963,860,7726,12024,-809,1424,1067
2017/07/11/15:49:17.965016,134715,1499759357,964756965,0,8055,845,7604,12041,-652,1357,1111
2017/07/11/15:49:17.987245,134716,1499759357,987083911,0,8133,839,7494,12058,-675,1424,1120
2017/07/11/15:49:18.002928,134717,1499759358,2537012,0,8215,830,7377,12075,-735,1473,1133
2017/07/11/15:49:18.024604,134718,1499759358,24462938,0,8303,835,7257,12087,-695,1335,1110
2017/07/11/15:49:18.047353,134719,1499759358,47182083,0,8390,848,7137,12098,-606,1351,1195
2017/07/11/15:49:18.063189,134720,1499759358,62905073,0,8465,857,7006,12122,-556,1278,1240
2017/07/11/15:49:18.085218,134721,1499759358,84748983,0,8533,864,6877,12147,-550,1213,1253
2017/07/11/15:49:18.109812,134722,1499759358,107933044,0,8609,881,6760,12158,-699,1262,1224
2017/07/11/15:49:18.130736,134723,1499759358,130489110,0,8679,934,6658,12161,-459,1189,1228
2017/07/11/15:49:18.146429,134724,1499759358,146076917,0,8734,985,6577,12161,-477,1235,1371
2017/07/11/15:49:18.168803,134725,1499759358,168442964,0,8788,1030,6504,12158,-644,1254,1384
2017/07/11/15:49:18.189646,134726,1499759358,189440965,0,8844,1091,6429,12152,-589,1225,1355
2017/07/11/15:49:18.204772,134727,1499759358,204524993,0,8891,1156,6361,12148,-456,1306,1295
2017/07/11/15:49:18.227913,134728,1499759358,227448940,0,8931,1193,6286,12153,-520,1235,1337
2017/07/11/15:49:18.249583,134729,1499759358,249428033,0,8977,1231,6228,12146,-653,1095,1343
2017/07/11/15:49:18.265132,134730,1499759358,264769077,0,9014,1323,6202,12122,-430,1199,1239
2017/07/11/15:49:18.287488,134731,1499759358,287245988,0,9042,1399,6163,12112,-327,1394,1314
2017/07/11/15:49:18.309619,134732,1499759358,309415102,0,9072,1423,6099,12120,-512,1234,1498
2017/07/11/15:49:18.324708,134733,1499759358,324544906,0,9105,1444,6055,12114,-642,1037,1441
2017/07/11/15:49:18.347406,134734,1499759358,347213983,0,9134,1511,6032,12096,-515,1231,1274
2017/07/11/15:49:18.369993,134735,1499759358,369761943,0,9155,1580,5995,12090,-389,1291,1370
2017/07/11/15:49:18.385036,134736,1499759358,384738922,0,9171,1622,5962,12088,-487,1091,1513
2017/07/11/15:49:18.407189,134737,1499759358,407036066,0,9180,1679,5969,12069,-469,1219,1402
2017/07/11/15:49:18.430337,134738,1499759358,429992914,0,9187,1724,5960,12063,-452,1383,1294
2017/07/11/15:49:18.444834,134739,1499759358,444586992,0,9205,1733,5907,12074,-547,1140,1423
2017/07/11/15:49:18.467406,134740,1499759358,467174053,0,9223,1764,5876,12071,-585,1036,1460
2017/07/11/15:49:18.489506,134741,1499759358,489366054,0,9229,1844,5877,12054,-437,1339,1380
2017/07/11/15:49:18.504894,134742,1499759358,504667997,0,9235,1889,5872,12045,-458,1479,1483
2017/07/11/15:49:18.527263,134743,1499759358,527086019,0,9245,1904,5846,12047,-534,1275,1464
2017/07/11/15:49:18.550260,134744,1499759358,549942016,0,9258,1943,5811,12048,-452,1219,1320
2017/07/11/15:49:18.565213,134745,1499759358,564729928,0,9267,1983,5774,12053,-420,1460,1309
2017/07/11/15:49:18.587075,134746,1499759358,586877107,0,9277,1983,5712,12074,-369,1150,1559
2017/07/11/15:49:18.609714,134747,1499759358,609443902,0,9285,2003,5689,12075,-366,1022,1484
2017/07/11/15:49:18.625049,134748,1499759358,624779939,0,9281,2065,5714,12056,-432,1355,1395
2017/07/11/15:49:18.649193,134749,1499759358,649091005,0,9276,2116,5716,12051,-379,1521,1373
2017/07/11/15:49:18.669973,134750,1499759358,669646024,0,9273,2118,5670,12074,-312,1228,1418
2017/07/11/15:49:18.685102,134751,1499759358,684823989,0,9276,2112,5644,12085,-376,1076,1461
2017/07/11/15:49:18.707568,134752,1499759358,707251071,0,9275,2134,5658,12076,-434,1381,1446
2017/07/11/15:49:18.730443,134753,1499759358,729934930,0,9266,2163,5665,12074,-375,1390,1447
2017/07/11/15:49:18.745159,134754,1499759358,744894027,0,9258,2169,5663,12080,-347,1310,1411
2017/07/11/15:49:18.767034,134755,1499759358,766879081,0,9259,2147,5648,12090,-403,1342,1424
2017/07/11/15:49:18.789683,134756,1499759358,789509057,0,9266,2127,5626,12099,-399,1265,1480
2017/07/11/15:49:18.804842,134757,1499759358,804617881,0,9263,2140,5633,12095,-358,1269,1450
2017/07/11/15:49:18.828095,134758,1499759358,827899932,0,9256,2152,5652,12089,-377,1357,1384
2017/07/11/15:49:18.850384,134759,1499759358,849845886,0,9255,2136,5652,12093,-442,1222,1485
2017/07/11/15:49:18.866096,134760,1499759358,865930080,0,9258,2136,5658,12088,-448,1312,1473
2017/07/11/15:49:18.887071,134761,1499759358,886881113,0,9259,2159,5672,12077,-369,1367,1380
2017/07/11/15:49:18.909608,134762,1499759358,909414052,0,9253,2178,5682,12073,-265,1344,1340
2017/07/11/15:49:18.924622,134763,1499759358,924422979,0,9250,2155,5683,12079,-407,1263,1428
2017/07/11/15:49:18.947207,134764,1499759358,947043895,0,9255,2140,5683,12078,-467,1185,1444
2017/07/11/15:49:18.978858,134765,1499759358,977859973,0,9260,2149,5700,12065,-402,1298,1376
2017/07/11/15:49:18.984525,134766,1499759358,984344959,0,9259,2160,5712,12058,-338,1365,1378
2017/07/11/15:49:19.007205,134767,1499759359,6932020,0,9257,2149,5707,12063,-376,1278,1462
2017/07/11/15:49:19.030378,134768,1499759359,30076026,0,9256,2149,5712,12062,-408,1224,1444
2017/07/11/15:49:19.044462,134769,1499759359,44351100,0,9256,2167,5727,12052,-381,1337,1358
